density,loudness,brightness,roughness,speed
0.828957,0.869261,0.217791,0.317753,0.327048
0.828116,0.868287,0.220084,0.321635,0.330885
0.827180,0.867204,0.222631,0.325947,0.335149
0.826151,0.866013,0.225434,0.330691,0.339839
0.825029,0.864714,0.228490,0.335866,0.344955
0.823813,0.863307,0.231802,0.341473,0.350498
0.822504,0.861791,0.235368,0.347511,0.356467
0.821101,0.860168,0.239190,0.353980,0.362862
0.819604,0.858435,0.243265,0.360880,0.369683
0.818014,0.856595,0.247596,0.368211,0.376931
0.816424,0.854755,0.251927,0.375543,0.384179
0.814834,0.852914,0.256257,0.382874,0.391427
0.813244,0.851074,0.260588,0.390206,0.398675
0.811654,0.849234,0.264918,0.397537,0.405923
0.810064,0.847393,0.269249,0.404869,0.413171
0.808474,0.845553,0.273579,0.412200,0.420419
0.806884,0.843713,0.277910,0.419532,0.427667
0.805294,0.841872,0.282241,0.426863,0.434915
0.803704,0.840032,0.286571,0.434195,0.442163
0.802114,0.838192,0.290902,0.441526,0.449411
0.800524,0.836351,0.295232,0.448858,0.456659
0.798934,0.834511,0.299563,0.456189,0.463907
0.797344,0.832671,0.303893,0.463521,0.471155
0.795754,0.830830,0.308224,0.470852,0.478403
0.794164,0.828990,0.312555,0.478184,0.485651
0.792574,0.827150,0.316885,0.485515,0.492899
0.790984,0.825309,0.321216,0.492847,0.500147
0.789394,0.823469,0.325546,0.500178,0.507395
0.787804,0.821629,0.329877,0.507510,0.514643
0.786214,0.819788,0.334208,0.514841,0.521891
0.784624,0.817948,0.338538,0.522173,0.529139
0.783034,0.816108,0.342869,0.529504,0.536387
0.781444,0.814267,0.347199,0.536836,0.543635
0.779854,0.812427,0.351530,0.544167,0.550883
0.778264,0.810587,0.355860,0.551499,0.558131
0.776674,0.808746,0.360191,0.558830,0.565379
0.775084,0.806906,0.364522,0.566162,0.572627
0.773494,0.805066,0.368852,0.573493,0.579875
0.771904,0.803225,0.373183,0.580825,0.587123
0.770314,0.801385,0.377513,0.588156,0.594371
0.768724,0.799545,0.381844,0.595488,0.601619
0.767134,0.797704,0.386175,0.602819,0.608867
0.765544,0.795864,0.390505,0.610151,0.616115
0.763954,0.794023,0.394836,0.617482,0.623363
0.762364,0.792183,0.399166,0.624814,0.630611
0.760774,0.790343,0.403497,0.632145,0.637859
0.759184,0.788502,0.407827,0.639477,0.645107
0.757594,0.786662,0.412158,0.646808,0.652355
0.756004,0.784822,0.416489,0.654140,0.659603
0.754414,0.782981,0.420819,0.661471,0.666851
0.752824,0.781141,0.425150,0.668803,0.674099
0.751234,0.779301,0.429480,0.676134,0.681347
0.749644,0.777460,0.433811,0.683466,0.688595
0.748054,0.775620,0.438141,0.690797,0.695843
0.746464,0.773780,0.442472,0.698129,0.703091
0.744874,0.771939,0.446803,0.705460,0.710339
0.743284,0.770099,0.451133,0.712792,0.717587
0.741694,0.768259,0.455464,0.720123,0.724835
0.740104,0.766418,0.459794,0.727455,0.732083
0.738514,0.764578,0.464125,0.734786,0.739331
0.736924,0.762738,0.468456,0.742118,0.746579
0.735334,0.760897,0.472786,0.749449,0.753827
0.733744,0.759057,0.477117,0.756781,0.761075
0.732154,0.757217,0.481447,0.764112,0.768323
0.730564,0.755376,0.485778,0.771444,0.775571
0.728974,0.753536,0.490108,0.778775,0.782819
0.727384,0.751696,0.494439,0.786107,0.790067
0.725794,0.749855,0.498770,0.793438,0.797315
0.724204,0.748015,0.503100,0.800770,0.804563
0.722614,0.746175,0.507431,0.808101,0.811811
0.721024,0.744334,0.511761,0.815433,0.819059
0.719434,0.742494,0.516092,0.822764,0.826307
0.717844,0.740654,0.520423,0.830096,0.833555
0.716312,0.738681,0.524370,0.836856,0.839908
0.714841,0.736567,0.527904,0.842998,0.845289
0.713432,0.734309,0.531023,0.848521,0.849700
0.712085,0.731909,0.533727,0.853425,0.853141
0.710801,0.729367,0.536017,0.857711,0.855611
0.709578,0.726682,0.537892,0.861378,0.857111
0.708417,0.723854,0.539353,0.864426,0.857640
0.707319,0.720883,0.540399,0.866856,0.857199
0.706282,0.717770,0.541031,0.868667,0.855787
0.705307,0.714514,0.541248,0.869859,0.853404
0.704395,0.711115,0.541051,0.870433,0.850051
0.703544,0.707574,0.540439,0.870387,0.845728
0.702756,0.703890,0.539413,0.869724,0.840434
0.702029,0.700063,0.537972,0.868441,0.834170
0.701364,0.696094,0.536117,0.866540,0.826935
0.700762,0.691982,0.533847,0.864020,0.818730
0.700221,0.687728,0.531162,0.860881,0.809554
0.699685,0.683462,0.528446,0.857695,0.800303
0.699150,0.679197,0.525729,0.854509,0.791053
0.698614,0.674931,0.523013,0.851323,0.781802
0.698078,0.670666,0.520297,0.848137,0.772552
0.697542,0.666400,0.517580,0.844950,0.763301
0.697006,0.662135,0.514864,0.841764,0.754050
0.696471,0.657869,0.512148,0.838578,0.744800
0.695935,0.653604,0.509431,0.835392,0.735549
0.695399,0.649338,0.506715,0.832206,0.726299
0.694863,0.645073,0.503999,0.829019,0.717048
0.694327,0.640807,0.501282,0.825833,0.707798
0.693792,0.636542,0.498566,0.822647,0.698547
0.693256,0.632276,0.495850,0.819461,0.689297
0.692720,0.628011,0.493133,0.816275,0.680046
0.692184,0.623745,0.490417,0.813088,0.670796
0.691648,0.619480,0.487701,0.809902,0.661545
0.691113,0.615214,0.484984,0.806716,0.652295
0.690577,0.610949,0.482268,0.803530,0.643044
0.690041,0.606683,0.479552,0.800344,0.633794
0.689505,0.602418,0.476835,0.797157,0.624543
0.688970,0.598152,0.474119,0.793971,0.615293
0.688434,0.593887,0.471403,0.790785,0.606042
0.687898,0.589621,0.468686,0.787599,0.596791
0.687362,0.585356,0.465970,0.784413,0.587541
0.686826,0.581090,0.463254,0.781227,0.578290
0.686291,0.576825,0.460537,0.778040,0.569040
0.685755,0.572559,0.457821,0.774854,0.559789
0.685219,0.568294,0.455105,0.771668,0.550539
0.684683,0.564028,0.452388,0.768482,0.541288
0.684147,0.559763,0.449672,0.765296,0.532038
0.683612,0.555497,0.446956,0.762109,0.522787
0.683076,0.551232,0.444239,0.758923,0.513537
0.682540,0.546966,0.441523,0.755737,0.504286
0.682004,0.542701,0.438807,0.752551,0.495036
0.681468,0.538435,0.436090,0.749365,0.485785
0.680933,0.534170,0.433374,0.746178,0.476535
0.680397,0.529904,0.430658,0.742992,0.467284
0.679861,0.525639,0.427941,0.739806,0.458033
0.679325,0.521373,0.425225,0.736620,0.448783
0.678789,0.517108,0.422509,0.733434,0.439532
0.678254,0.512842,0.419792,0.730247,0.430282
0.677718,0.508577,0.417076,0.727061,0.421031
0.677182,0.504311,0.414360,0.723875,0.411781
0.676646,0.500046,0.411643,0.720689,0.402530
0.676110,0.495780,0.408927,0.717503,0.393280
0.675575,0.491515,0.406211,0.714317,0.384029
0.675039,0.487249,0.403494,0.711130,0.374779
0.674503,0.482984,0.400778,0.707944,0.365528
0.673967,0.478718,0.398062,0.704758,0.356278
0.673431,0.474453,0.395345,0.701572,0.347027
0.672896,0.470187,0.392629,0.698386,0.337777
0.672360,0.465922,0.389913,0.695199,0.328526
0.671824,0.461656,0.387196,0.692013,0.319275
0.671288,0.457391,0.384480,0.688827,0.310025
0.670752,0.453125,0.381764,0.685641,0.300774
0.670217,0.448860,0.379047,0.682455,0.291524
0.669681,0.444594,0.376331,0.679268,0.282273
0.669145,0.440329,0.373614,0.676082,0.273023
0.668609,0.436063,0.370898,0.672896,0.263772
0.668074,0.431798,0.368182,0.669710,0.254522
0.667538,0.427532,0.365465,0.666524,0.245271
0.667002,0.423267,0.362749,0.663337,0.236021
0.666466,0.419001,0.360033,0.660151,0.226770
0.666063,0.415207,0.357608,0.657093,0.218396
0.665816,0.411969,0.355526,0.654186,0.211059
0.665727,0.409287,0.353789,0.651431,0.204757
0.665794,0.407162,0.352396,0.648827,0.199492
0.666017,0.405594,0.351347,0.646374,0.195263
0.666397,0.404582,0.350642,0.644072,0.192070
0.666934,0.404126,0.350281,0.641922,0.189913
0.667628,0.404227,0.350264,0.639923,0.188793
0.668478,0.404885,0.350591,0.638076,0.188708
0.669485,0.406099,0.351262,0.636380,0.189660
0.670649,0.407870,0.352278,0.634835,0.191648
0.671970,0.410197,0.353637,0.633442,0.194672
0.673447,0.413081,0.355340,0.632199,0.198733
0.675081,0.416522,0.357387,0.631109,0.203829
0.676871,0.420519,0.359779,0.630169,0.209962
0.678818,0.425072,0.362514,0.629381,0.217130
0.680922,0.430182,0.365593,0.628744,0.225335
0.683050,0.435378,0.368726,0.628131,0.233700
0.685179,0.440573,0.371858,0.627517,0.242064
0.687307,0.445769,0.374990,0.626903,0.250429
0.689435,0.450964,0.378123,0.626290,0.258793
0.691563,0.456160,0.381255,0.625676,0.267157
0.693691,0.461355,0.384388,0.625063,0.275522
0.695819,0.466551,0.387520,0.624449,0.283886
0.697947,0.471747,0.390652,0.623836,0.292251
0.700075,0.476942,0.393785,0.623222,0.300615
0.702203,0.482138,0.396917,0.622609,0.308979
0.704331,0.487333,0.400049,0.621995,0.317344
0.706459,0.492529,0.403182,0.621382,0.325708
0.708587,0.497725,0.406314,0.620768,0.334073
0.710715,0.502920,0.409446,0.620155,0.342437
0.712843,0.508116,0.412579,0.619541,0.350801
0.714971,0.513311,0.415711,0.618927,0.359166
0.717099,0.518507,0.418843,0.618314,0.367530
0.719227,0.523703,0.421976,0.617700,0.375895
0.721355,0.528898,0.425108,0.617087,0.384259
0.723484,0.534094,0.428240,0.616473,0.392623
0.725612,0.539289,0.431373,0.615860,0.400988
0.727740,0.544485,0.434505,0.615246,0.409352
0.729868,0.549680,0.437637,0.614633,0.417717
0.731996,0.554876,0.440770,0.614019,0.426081
0.734124,0.560072,0.443902,0.613406,0.434445
0.736252,0.565267,0.447034,0.612792,0.442810
0.738380,0.570463,0.450167,0.612178,0.451174
0.740508,0.575658,0.453299,0.611565,0.459539
0.742636,0.580854,0.456432,0.610951,0.467903
0.744764,0.586050,0.459564,0.610338,0.476267
0.746892,0.591245,0.462696,0.609724,0.484632
0.749020,0.596441,0.465829,0.609111,0.492996
0.751148,0.601636,0.468961,0.608497,0.501361
0.753276,0.606832,0.472093,0.607884,0.509725
0.755404,0.612028,0.475226,0.607270,0.518089
0.757532,0.617223,0.478358,0.606657,0.526454
0.759660,0.622419,0.481490,0.606043,0.534818
0.761788,0.627614,0.484623,0.605430,0.543183
0.763917,0.632810,0.487755,0.604816,0.551547
0.766045,0.638005,0.490887,0.604202,0.559911
0.768173,0.643201,0.494020,0.603589,0.568276
0.770301,0.648397,0.497152,0.602975,0.576640
0.772429,0.653592,0.500284,0.602362,0.585005
0.774557,0.658788,0.503417,0.601748,0.593369
0.776685,0.663983,0.506549,0.601135,0.601733
0.778813,0.669179,0.509681,0.600521,0.610098
0.780941,0.674375,0.512814,0.599908,0.618462
0.783069,0.679570,0.515946,0.599294,0.626827
0.785197,0.684766,0.519078,0.598681,0.635191
0.787325,0.689961,0.522211,0.598067,0.643555
0.789453,0.695157,0.525343,0.597453,0.651920
0.791581,0.700353,0.528476,0.596840,0.660284
0.793709,0.705548,0.531608,0.596226,0.668648
0.795837,0.710744,0.534740,0.595613,0.677013
0.797965,0.715939,0.537873,0.594999,0.685377
0.800093,0.721135,0.541005,0.594386,0.693742
0.802221,0.726330,0.544137,0.593772,0.702106
0.804350,0.731526,0.547270,0.593159,0.710470
0.806478,0.736722,0.550402,0.592545,0.718835
0.808606,0.741917,0.553534,0.591932,0.727199
0.810734,0.747113,0.556667,0.591318,0.735564
0.812862,0.752308,0.559799,0.590705,0.743928
0.814990,0.757504,0.562931,0.590091,0.752292
0.817034,0.762420,0.566099,0.589652,0.760313
0.818968,0.766973,0.569313,0.589439,0.767887
0.820794,0.771162,0.572573,0.589453,0.775014
0.822510,0.774987,0.575879,0.589694,0.781694
0.824117,0.778450,0.579231,0.590161,0.787927
0.825614,0.781548,0.582629,0.590854,0.793714
0.827002,0.784284,0.586073,0.591775,0.799053
0.828281,0.786656,0.589564,0.592921,0.803946
0.829451,0.788664,0.593100,0.594295,0.808392
0.830511,0.790309,0.596682,0.595895,0.812391
0.831462,0.791591,0.600311,0.597722,0.815943
0.832304,0.792509,0.603985,0.599775,0.819048
0.833036,0.793063,0.607706,0.602055,0.821706
0.833659,0.793255,0.611473,0.604561,0.823918
0.834173,0.793083,0.615285,0.607294,0.825683
0.834578,0.792547,0.619144,0.610254,0.827000
0.834873,0.791648,0.623049,0.613440,0.827871
0.835143,0.790665,0.626965,0.616678,0.828639
0.835413,0.789682,0.630880,0.619917,0.829407
0.835683,0.788699,0.634796,0.623155,0.830175
0.835953,0.787716,0.638711,0.626393,0.830943
0.836223,0.786733,0.642627,0.629632,0.831711
0.836493,0.785750,0.646542,0.632870,0.832479
0.836763,0.784767,0.650458,0.636109,0.833247
0.837033,0.783784,0.654373,0.639347,0.834014
0.837303,0.782801,0.658289,0.642586,0.834782
0.837573,0.781818,0.662204,0.645824,0.835550
0.837843,0.780835,0.666120,0.649063,0.836318
0.838113,0.779852,0.670035,0.652301,0.837086
0.838383,0.778869,0.673951,0.655539,0.837854
0.838653,0.777886,0.677866,0.658778,0.838622
0.838923,0.776903,0.681782,0.662016,0.839389
0.839193,0.775920,0.685697,0.665255,0.840157
0.839463,0.774937,0.689613,0.668493,0.840925
0.839733,0.773954,0.693528,0.671732,0.841693
0.840003,0.772971,0.697444,0.674970,0.842461
0.840273,0.771988,0.701359,0.678208,0.843229
0.840543,0.771005,0.705275,0.681447,0.843997
0.840813,0.770022,0.709190,0.684685,0.844764
0.841083,0.769039,0.713106,0.687924,0.845532
0.841353,0.768056,0.717022,0.691162,0.846300
0.841623,0.767074,0.720937,0.694401,0.847068
0.841892,0.766091,0.724853,0.697639,0.847836
0.842162,0.765108,0.728768,0.700878,0.848604
0.842432,0.764125,0.732684,0.704116,0.849372
0.842702,0.763142,0.736599,0.707354,0.850140
0.842972,0.762159,0.740515,0.710593,0.850907
0.843242,0.761176,0.744430,0.713831,0.851675
0.843512,0.760193,0.748346,0.717070,0.852443
0.843782,0.759210,0.752261,0.720308,0.853211
0.844052,0.758227,0.756177,0.723547,0.853979
0.844322,0.757244,0.760092,0.726785,0.854747
0.844592,0.756261,0.764008,0.730024,0.855515
0.844862,0.755278,0.767923,0.733262,0.856282
0.845132,0.754295,0.771839,0.736500,0.857050
0.845402,0.753312,0.775754,0.739739,0.857818
0.845672,0.752329,0.779670,0.742977,0.858586
0.845942,0.751346,0.783585,0.746216,0.859354
0.846212,0.750363,0.787501,0.749454,0.860122
0.846482,0.749380,0.791416,0.752693,0.860890
0.846752,0.748397,0.795332,0.755931,0.861657
0.847022,0.747414,0.799247,0.759169,0.862425
0.847292,0.746431,0.803163,0.762408,0.863193
0.847562,0.745448,0.807078,0.765646,0.863961
0.847832,0.744465,0.810994,0.768885,0.864729
0.848102,0.743482,0.814909,0.772123,0.865497
0.848372,0.742499,0.818825,0.775362,0.866265
0.848642,0.741516,0.822741,0.778600,0.867033
0.848912,0.740533,0.826656,0.781839,0.867800
0.849182,0.739550,0.830572,0.785077,0.868568
0.849452,0.738567,0.834487,0.788315,0.869336
0.849722,0.737584,0.838403,0.791554,0.870104
0.849992,0.736601,0.842318,0.794792,0.870872
0.850262,0.735618,0.846234,0.798031,0.871640
0.850532,0.734635,0.850149,0.801269,0.872408
0.850802,0.733653,0.854065,0.804508,0.873175
0.851072,0.732670,0.857980,0.807746,0.873943
0.851342,0.731687,0.861896,0.810985,0.874711
0.851612,0.730704,0.865811,0.814223,0.875479
0.851882,0.729721,0.869727,0.817461,0.876247
0.851894,0.728593,0.873223,0.820354,0.876698
0.851535,0.727257,0.876113,0.822749,0.876690
0.850803,0.725712,0.878397,0.824644,0.876224
0.849699,0.723958,0.880075,0.826040,0.875301
0.848223,0.721995,0.881148,0.826938,0.873919
0.846375,0.719824,0.881614,0.827337,0.872079
0.844155,0.717444,0.881475,0.827237,0.869780
0.841563,0.714855,0.880730,0.826638,0.867024
0.838599,0.712057,0.879378,0.825540,0.863809
0.835262,0.709051,0.877421,0.823943,0.860137
0.831554,0.705835,0.874858,0.821847,0.856006
0.827473,0.702411,0.871689,0.819253,0.851417
0.823021,0.698778,0.867915,0.816159,0.846369
0.818196,0.694937,0.863534,0.812567,0.840864
0.813000,0.690886,0.858547,0.808476,0.834901
0.807431,0.686627,0.852955,0.803886,0.828479
0.801490,0.682159,0.846756,0.798797,0.821599
0.795435,0.677627,0.840371,0.793555,0.814578
0.789379,0.673095,0.833986,0.788312,0.807557
0.783324,0.668562,0.827601,0.783070,0.800537
0.777268,0.664030,0.821217,0.777828,0.793516
0.771213,0.659498,0.814832,0.772585,0.786495
0.765158,0.654966,0.808447,0.767343,0.779474
0.759102,0.650434,0.802062,0.762100,0.772453
0.753047,0.645901,0.795677,0.756858,0.765433
0.746992,0.641369,0.789292,0.751616,0.758412
0.740936,0.636837,0.782907,0.746373,0.751391
0.734881,0.632305,0.776522,0.741131,0.744370
0.728826,0.627773,0.770137,0.735889,0.737349
0.722770,0.623240,0.763752,0.730646,0.730328
0.716715,0.618708,0.757368,0.725404,0.723308
0.710659,0.614176,0.750983,0.720161,0.716287
0.704604,0.609644,0.744598,0.714919,0.709266
0.698549,0.605112,0.738213,0.709677,0.702245
0.692493,0.600579,0.731828,0.704434,0.695224
0.686438,0.596047,0.725443,0.699192,0.688204
0.680383,0.591515,0.719058,0.693950,0.681183
0.674327,0.586983,0.712673,0.688707,0.674162
0.668272,0.582451,0.706288,0.683465,0.667141
0.662217,0.577918,0.699903,0.678222,0.660120
0.656161,0.573386,0.693519,0.672980,0.653100
0.650106,0.568854,0.687134,0.667738,0.646079
0.644051,0.564322,0.680749,0.662495,0.639058
0.637995,0.559790,0.674364,0.657253,0.632037
0.631940,0.555257,0.667979,0.652011,0.625016
0.625884,0.550725,0.661594,0.646768,0.617996
0.619829,0.546193,0.655209,0.641526,0.610975
0.613774,0.541661,0.648824,0.636283,0.603954
0.607718,0.537128,0.642439,0.631041,0.596933
0.601663,0.532596,0.636054,0.625799,0.589912
0.595608,0.528064,0.629670,0.620556,0.582891
0.589552,0.523532,0.623285,0.615314,0.575871
0.583497,0.519000,0.616900,0.610072,0.568850
0.577442,0.514467,0.610515,0.604829,0.561829
0.571386,0.509935,0.604130,0.599587,0.554808
0.565331,0.505403,0.597745,0.594344,0.547787
0.559276,0.500871,0.591360,0.589102,0.540767
0.553220,0.496339,0.584975,0.583860,0.533746
0.547165,0.491806,0.578590,0.578617,0.526725
0.541109,0.487274,0.572205,0.573375,0.519704
0.535054,0.482742,0.565821,0.568133,0.512683
0.528999,0.478210,0.559436,0.562890,0.505663
0.522943,0.473678,0.553051,0.557648,0.498642
0.516888,0.469145,0.546666,0.552405,0.491621
0.510833,0.464613,0.540281,0.547163,0.484600
0.504777,0.460081,0.533896,0.541921,0.477579
0.498722,0.455549,0.527511,0.536678,0.470559
0.492667,0.451017,0.521126,0.531436,0.463538
0.486611,0.446484,0.514741,0.526193,0.456517
0.480556,0.441952,0.508356,0.520951,0.449496
0.474500,0.437420,0.501972,0.515709,0.442475
0.468445,0.432888,0.495587,0.510466,0.435454
0.462390,0.428356,0.489202,0.505224,0.428434
0.456334,0.423823,0.482817,0.499982,0.421413
0.450279,0.419291,0.476432,0.494739,0.414392
0.444224,0.414759,0.470047,0.489497,0.407371
0.438168,0.410227,0.463662,0.484254,0.400350
0.432113,0.405694,0.457277,0.479012,0.393330
0.426058,0.401162,0.450892,0.473770,0.386309
0.420002,0.396630,0.444507,0.468527,0.379288
0.414376,0.392391,0.438543,0.463682,0.372819
0.409446,0.388627,0.433262,0.459484,0.367247
0.405214,0.385338,0.428663,0.455930,0.362572
0.401679,0.382526,0.424748,0.453023,0.358794
0.398841,0.380189,0.421517,0.450762,0.355913
0.396699,0.378328,0.418968,0.449147,0.353929
0.395255,0.376942,0.417102,0.448178,0.352842
0.394508,0.376032,0.415920,0.447854,0.352652
0.394458,0.375598,0.415421,0.448177,0.353359
0.395105,0.375639,0.415605,0.449145,0.354963
0.396449,0.376156,0.416472,0.450759,0.357464
0.398490,0.377148,0.418022,0.453020,0.360861
0.401228,0.378617,0.420256,0.455926,0.365156
0.404663,0.380560,0.423172,0.459478,0.370348
0.408795,0.382980,0.426772,0.463676,0.376437
0.413624,0.385875,0.431055,0.468520,0.383422
0.419150,0.389246,0.436021,0.474010,0.391305
0.424944,0.392799,0.441250,0.479748,0.399532
0.430738,0.396353,0.446478,0.485487,0.407760
0.436533,0.399907,0.451707,0.491225,0.415987
0.442327,0.403461,0.456936,0.496963,0.424215
0.448121,0.407014,0.462165,0.502701,0.432442
0.453915,0.410568,0.467394,0.508440,0.440670
0.459710,0.414122,0.472623,0.514178,0.448897
0.465504,0.417675,0.477851,0.519916,0.457125
0.471298,0.421229,0.483080,0.525655,0.465353
0.477092,0.424783,0.488309,0.531393,0.473580
0.482887,0.428336,0.493538,0.537131,0.481808
0.488681,0.431890,0.498767,0.542870,0.490035
0.494475,0.435444,0.503996,0.548608,0.498263
0.500269,0.438998,0.509224,0.554346,0.506490
0.506064,0.442551,0.514453,0.560085,0.514718
0.511858,0.446105,0.519682,0.565823,0.522945
0.517652,0.449659,0.524911,0.571561,0.531173
0.523446,0.453212,0.530140,0.577300,0.539401
0.529241,0.456766,0.535369,0.583038,0.547628
0.535035,0.460320,0.540597,0.588776,0.555856
0.540829,0.463874,0.545826,0.594515,0.564083
0.546623,0.467427,0.551055,0.600253,0.572311
0.552418,0.470981,0.556284,0.605991,0.580538
