density,loudness,brightness,roughness,speed
0.368105,0.720131,0.302227,0.326076,0.925727
0.367252,0.717492,0.302601,0.326620,0.920485
0.366305,0.714559,0.303016,0.327224,0.914662
0.365263,0.711334,0.303473,0.327889,0.908256
0.364126,0.707815,0.303972,0.328613,0.901269
0.362895,0.704003,0.304512,0.329398,0.893699
0.361568,0.699899,0.305093,0.330244,0.885548
0.360148,0.695501,0.305717,0.331150,0.876815
0.358632,0.690811,0.306381,0.332116,0.867501
0.357022,0.685827,0.307087,0.333143,0.857604
0.355412,0.680841,0.307794,0.334170,0.847703
0.353801,0.675855,0.308500,0.335197,0.837801
0.352190,0.670869,0.309207,0.336224,0.827900
0.350579,0.665883,0.309913,0.337251,0.817998
0.348968,0.660897,0.310620,0.338278,0.808097
0.347357,0.655911,0.311326,0.339305,0.798196
0.345747,0.650925,0.312033,0.340332,0.788294
0.344136,0.645940,0.312739,0.341359,0.778393
0.342525,0.640954,0.313446,0.342386,0.768492
0.340914,0.635968,0.314152,0.343413,0.758590
0.339303,0.630982,0.314859,0.344440,0.748689
0.337693,0.625996,0.315565,0.345467,0.738787
0.336082,0.621010,0.316272,0.346494,0.728886
0.334471,0.616024,0.316978,0.347521,0.718985
0.332860,0.611038,0.317685,0.348548,0.709083
0.331249,0.606052,0.318391,0.349576,0.699182
0.329639,0.601066,0.319098,0.350603,0.689281
0.328028,0.596080,0.319804,0.351630,0.679379
0.326417,0.591094,0.320511,0.352657,0.669478
0.324806,0.586108,0.321217,0.353684,0.659576
0.323195,0.581122,0.321923,0.354711,0.649675
0.321585,0.576136,0.322630,0.355738,0.639774
0.319974,0.571150,0.323336,0.356765,0.629872
0.318363,0.566164,0.324043,0.357792,0.619971
0.316752,0.561178,0.324749,0.358819,0.610070
0.315141,0.556192,0.325456,0.359846,0.600168
0.313530,0.551206,0.326162,0.360873,0.590267
0.311920,0.546221,0.326869,0.361900,0.580365
0.310309,0.541235,0.327575,0.362927,0.570464
0.308698,0.536249,0.328282,0.363954,0.560563
0.307087,0.531263,0.328988,0.364981,0.550661
0.305476,0.526277,0.329695,0.366008,0.540760
0.303866,0.521291,0.330401,0.367036,0.530859
0.302255,0.516305,0.331108,0.368063,0.520957
0.300644,0.511319,0.331814,0.369090,0.511056
0.299033,0.506333,0.332521,0.370117,0.501155
0.297422,0.501347,0.333227,0.371144,0.491253
0.295812,0.496361,0.333934,0.372171,0.481352
0.294201,0.491375,0.334640,0.373198,0.471450
0.292590,0.486389,0.335347,0.374225,0.461549
0.290979,0.481403,0.336053,0.375252,0.451648
0.289368,0.476417,0.336760,0.376279,0.441746
0.287757,0.471431,0.337466,0.377306,0.431845
0.286147,0.466445,0.338173,0.378333,0.421944
0.284536,0.461459,0.338879,0.379360,0.412042
0.282925,0.456473,0.339586,0.380387,0.402141
0.281314,0.451487,0.340292,0.381414,0.392239
0.279703,0.446502,0.340999,0.382441,0.382338
0.278093,0.441516,0.341705,0.383468,0.372437
0.276482,0.436530,0.342412,0.384495,0.362535
0.274871,0.431544,0.343118,0.385523,0.352634
0.273260,0.426558,0.343824,0.386550,0.342733
0.271649,0.421572,0.344531,0.387577,0.332831
0.270039,0.416586,0.345237,0.388604,0.322930
0.268428,0.411600,0.345944,0.389631,0.313028
0.266817,0.406614,0.346650,0.390658,0.303127
0.265206,0.401628,0.347357,0.391685,0.293226
0.263595,0.396642,0.348063,0.392712,0.283324
0.261985,0.391656,0.348770,0.393739,0.273423
0.260374,0.386670,0.349476,0.394766,0.263522
0.258763,0.381684,0.350183,0.395793,0.253620
0.257152,0.376698,0.350889,0.396820,0.243719
0.255541,0.371712,0.351596,0.397847,0.233817
0.253930,0.366726,0.352302,0.398874,0.223916
0.252498,0.362037,0.353206,0.399803,0.214589
0.251384,0.357881,0.354463,0.400555,0.206292
0.250599,0.354274,0.356085,0.401125,0.199057
0.250144,0.351216,0.358072,0.401512,0.192886
0.250018,0.348708,0.360423,0.401718,0.187777
0.250221,0.346750,0.363140,0.401741,0.183731
0.250753,0.345341,0.366221,0.401581,0.180748
0.251615,0.344481,0.369668,0.401240,0.178828
0.252806,0.344171,0.373479,0.400716,0.177971
0.254326,0.344411,0.377655,0.400010,0.178177
0.256175,0.345200,0.382195,0.399122,0.179445
0.258354,0.346539,0.387101,0.398052,0.181777
0.260862,0.348427,0.392372,0.396799,0.185171
0.263699,0.350865,0.398007,0.395364,0.189628
0.266866,0.353852,0.404007,0.393747,0.195148
0.270362,0.357389,0.410372,0.391948,0.201731
0.274187,0.361476,0.417102,0.389966,0.209377
0.278167,0.365820,0.424004,0.387899,0.217522
0.282159,0.370186,0.430919,0.385825,0.225708
0.286151,0.374552,0.437834,0.383751,0.233895
0.290144,0.378918,0.444750,0.381677,0.242081
0.294136,0.383283,0.451665,0.379602,0.250267
0.298129,0.387649,0.458581,0.377528,0.258453
0.302121,0.392015,0.465496,0.375454,0.266639
0.306113,0.396381,0.472411,0.373380,0.274825
0.310106,0.400746,0.479327,0.371305,0.283011
0.314098,0.405112,0.486242,0.369231,0.291197
0.318091,0.409478,0.493157,0.367157,0.299383
0.322083,0.413844,0.500073,0.365083,0.307570
0.326076,0.418209,0.506988,0.363009,0.315756
0.330068,0.422575,0.513904,0.360934,0.323942
0.334060,0.426941,0.520819,0.358860,0.332128
0.338053,0.431307,0.527734,0.356786,0.340314
0.342045,0.435672,0.534650,0.354712,0.348500
0.346038,0.440038,0.541565,0.352637,0.356686
0.350030,0.444404,0.548481,0.350563,0.364872
0.354022,0.448770,0.555396,0.348489,0.373058
0.358015,0.453136,0.562311,0.346415,0.381244
0.362007,0.457501,0.569227,0.344341,0.389431
0.366000,0.461867,0.576142,0.342266,0.397617
0.369992,0.466233,0.583058,0.340192,0.405803
0.373985,0.470599,0.589973,0.338118,0.413989
0.377977,0.474964,0.596888,0.336044,0.422175
0.381969,0.479330,0.603804,0.333969,0.430361
0.385962,0.483696,0.610719,0.331895,0.438547
0.389954,0.488062,0.617634,0.329821,0.446733
0.393947,0.492427,0.624550,0.327747,0.454919
0.397939,0.496793,0.631465,0.325673,0.463106
0.401931,0.501159,0.638381,0.323598,0.471292
0.405924,0.505525,0.645296,0.321524,0.479478
0.409916,0.509890,0.652211,0.319450,0.487664
0.413909,0.514256,0.659127,0.317376,0.495850
0.417901,0.518622,0.666042,0.315301,0.504036
0.421894,0.522988,0.672958,0.313227,0.512222
0.425886,0.527353,0.679873,0.311153,0.520408
0.429878,0.531719,0.686788,0.309079,0.528594
0.433871,0.536085,0.693704,0.307005,0.536781
0.437863,0.540451,0.700619,0.304930,0.544967
0.441856,0.544816,0.707535,0.302856,0.553153
0.445848,0.549182,0.714450,0.300782,0.561339
0.449840,0.553548,0.721365,0.298708,0.569525
0.453833,0.557914,0.728281,0.296633,0.577711
0.457825,0.562279,0.735196,0.294559,0.585897
0.461818,0.566645,0.742111,0.292485,0.594083
0.465810,0.571011,0.749027,0.290411,0.602269
0.469803,0.575377,0.755942,0.288337,0.610455
0.473795,0.579742,0.762858,0.286262,0.618642
0.477787,0.584108,0.769773,0.284188,0.626828
0.481780,0.588474,0.776688,0.282114,0.635014
0.485772,0.592840,0.783604,0.280040,0.643200
0.489765,0.597205,0.790519,0.277965,0.651386
0.493757,0.601571,0.797435,0.275891,0.659572
0.497749,0.605937,0.804350,0.273817,0.667758
0.501742,0.610303,0.811265,0.271743,0.675944
0.505734,0.614668,0.818181,0.269669,0.684130
0.509727,0.619034,0.825096,0.267594,0.692317
0.513719,0.623400,0.832012,0.265520,0.700503
0.517712,0.627766,0.838927,0.263446,0.708689
0.521704,0.632131,0.845842,0.261372,0.716875
0.525696,0.636497,0.852758,0.259297,0.725061
0.529689,0.640863,0.859673,0.257223,0.733247
0.533651,0.645174,0.866533,0.255183,0.741371
0.537424,0.649148,0.873053,0.253350,0.749108
0.540981,0.652733,0.879181,0.251757,0.756402
0.544321,0.655930,0.884918,0.250403,0.763251
0.547444,0.658738,0.890262,0.249289,0.769656
0.550351,0.661157,0.895214,0.248414,0.775616
0.553040,0.663188,0.899775,0.247778,0.781132
0.555513,0.664831,0.903943,0.247382,0.786204
0.557769,0.666085,0.907720,0.247226,0.790831
0.559808,0.666950,0.911105,0.247308,0.795014
0.561630,0.667427,0.914098,0.247631,0.798753
0.563236,0.667515,0.916699,0.248192,0.802048
0.564624,0.667215,0.918908,0.248993,0.804898
0.565796,0.666526,0.920726,0.250034,0.807303
0.566751,0.665449,0.922151,0.251314,0.809265
0.567489,0.663983,0.923185,0.252833,0.810782
0.568010,0.662128,0.923826,0.254592,0.811854
0.568345,0.659939,0.924130,0.256557,0.812544
0.568647,0.657693,0.924377,0.258557,0.813169
0.568950,0.655446,0.924623,0.260558,0.813793
0.569253,0.653200,0.924870,0.262558,0.814418
0.569555,0.650954,0.925116,0.264558,0.815043
0.569858,0.648708,0.925363,0.266558,0.815667
0.570161,0.646462,0.925609,0.268558,0.816292
0.570464,0.644215,0.925856,0.270559,0.816917
0.570766,0.641969,0.926102,0.272559,0.817541
0.571069,0.639723,0.926349,0.274559,0.818166
0.571372,0.637477,0.926595,0.276559,0.818791
0.571674,0.635231,0.926842,0.278560,0.819415
0.571977,0.632984,0.927088,0.280560,0.820040
0.572280,0.630738,0.927335,0.282560,0.820665
0.572582,0.628492,0.927581,0.284560,0.821289
0.572885,0.626246,0.927828,0.286560,0.821914
0.573188,0.624000,0.928074,0.288561,0.822539
0.573490,0.621753,0.928321,0.290561,0.823163
0.573793,0.619507,0.928567,0.292561,0.823788
0.574096,0.617261,0.928814,0.294561,0.824413
0.574398,0.615015,0.929060,0.296562,0.825037
0.574701,0.612768,0.929307,0.298562,0.825662
0.575004,0.610522,0.929553,0.300562,0.826287
0.575306,0.608276,0.929800,0.302562,0.826911
0.575609,0.606030,0.930046,0.304562,0.827536
0.575912,0.603784,0.930293,0.306563,0.828161
0.576215,0.601537,0.930540,0.308563,0.828785
0.576517,0.599291,0.930786,0.310563,0.829410
0.576820,0.597045,0.931033,0.312563,0.830035
0.577123,0.594799,0.931279,0.314563,0.830659
0.577425,0.592553,0.931526,0.316564,0.831284
0.577728,0.590306,0.931772,0.318564,0.831909
0.578031,0.588060,0.932019,0.320564,0.832534
0.578333,0.585814,0.932265,0.322564,0.833158
0.578636,0.583568,0.932512,0.324565,0.833783
0.578939,0.581321,0.932758,0.326565,0.834408
0.579241,0.579075,0.933005,0.328565,0.835032
0.579544,0.576829,0.933251,0.330565,0.835657
0.579847,0.574583,0.933498,0.332565,0.836282
0.580149,0.572337,0.933744,0.334566,0.836906
0.580452,0.570090,0.933991,0.336566,0.837531
0.580755,0.567844,0.934237,0.338566,0.838156
0.581057,0.565598,0.934484,0.340566,0.838780
0.581360,0.563352,0.934730,0.342567,0.839405
0.581663,0.561106,0.934977,0.344567,0.840030
0.581965,0.558859,0.935223,0.346567,0.840654
0.582268,0.556613,0.935470,0.348567,0.841279
0.582571,0.554367,0.935716,0.350567,0.841904
0.582874,0.552121,0.935963,0.352568,0.842528
0.583176,0.549875,0.936209,0.354568,0.843153
0.583479,0.547628,0.936456,0.356568,0.843778
0.583782,0.545382,0.936702,0.358568,0.844402
0.584084,0.543136,0.936949,0.360568,0.845027
0.584387,0.540890,0.937195,0.362569,0.845652
0.584690,0.538643,0.937442,0.364569,0.846276
0.584992,0.536397,0.937688,0.366569,0.846901
0.585295,0.534151,0.937935,0.368569,0.847526
0.585598,0.531905,0.938181,0.370570,0.848150
0.585900,0.529659,0.938428,0.372570,0.848775
0.586203,0.527412,0.938674,0.374570,0.849400
0.586506,0.525166,0.938921,0.376570,0.850024
0.586808,0.522920,0.939168,0.378570,0.850649
0.587111,0.520674,0.939414,0.380571,0.851274
0.587414,0.518428,0.939661,0.382571,0.851898
0.587716,0.516181,0.939907,0.384571,0.852523
0.587917,0.514048,0.939907,0.386626,0.853016
0.587948,0.512101,0.939502,0.388770,0.853290
0.587799,0.510353,0.938664,0.391009,0.853333
0.587470,0.508803,0.937394,0.393343,0.853144
0.586961,0.507451,0.935691,0.395773,0.852723
0.586272,0.506298,0.933557,0.398298,0.852071
0.585404,0.505343,0.930990,0.400918,0.851186
0.584355,0.504586,0.927991,0.403634,0.850070
0.583126,0.504028,0.924560,0.406444,0.848721
0.581718,0.503668,0.920697,0.409350,0.847141
0.580129,0.503506,0.916401,0.412351,0.845329
0.578360,0.503543,0.911673,0.415448,0.843285
0.576412,0.503779,0.906513,0.418640,0.841009
0.574283,0.504212,0.900921,0.421927,0.838501
0.571975,0.504844,0.894897,0.425309,0.835762
0.569486,0.505675,0.888440,0.428786,0.832790
0.566817,0.506704,0.881551,0.432359,0.829587
0.564069,0.507820,0.874470,0.435974,0.826280
0.561309,0.508950,0.867362,0.439595,0.822959
0.558549,0.510080,0.860253,0.443216,0.819638
0.555789,0.511209,0.853145,0.446838,0.816317
0.553029,0.512339,0.846036,0.450459,0.812995
0.550269,0.513469,0.838927,0.454080,0.809674
0.547509,0.514598,0.831819,0.457701,0.806353
0.544749,0.515728,0.824710,0.461322,0.803031
0.541989,0.516858,0.817601,0.464943,0.799710
0.539229,0.517987,0.810493,0.468565,0.796389
0.536469,0.519117,0.803384,0.472186,0.793068
0.533709,0.520247,0.796276,0.475807,0.789746
0.530949,0.521376,0.789167,0.479428,0.786425
0.528189,0.522506,0.782058,0.483049,0.783104
0.525429,0.523636,0.774950,0.486670,0.779782
0.522669,0.524765,0.767841,0.490291,0.776461
0.519909,0.525895,0.760732,0.493913,0.773140
0.517149,0.527025,0.753624,0.497534,0.769819
0.514389,0.528155,0.746515,0.501155,0.766497
0.511629,0.529284,0.739407,0.504776,0.763176
0.508869,0.530414,0.732298,0.508397,0.759855
0.506109,0.531544,0.725189,0.512018,0.756533
0.503349,0.532673,0.718081,0.515640,0.753212
0.500589,0.533803,0.710972,0.519261,0.749891
0.497829,0.534933,0.703863,0.522882,0.746570
0.495069,0.536062,0.696755,0.526503,0.743248
0.492309,0.537192,0.689646,0.530124,0.739927
0.489549,0.538322,0.682538,0.533745,0.736606
0.486789,0.539451,0.675429,0.537367,0.733284
0.484029,0.540581,0.668320,0.540988,0.729963
0.481269,0.541711,0.661212,0.544609,0.726642
0.478509,0.542840,0.654103,0.548230,0.723321
0.475749,0.543970,0.646994,0.551851,0.719999
0.472989,0.545100,0.639886,0.555472,0.716678
0.470229,0.546229,0.632777,0.559094,0.713357
0.467469,0.547359,0.625669,0.562715,0.710035
0.464709,0.548489,0.618560,0.566336,0.706714
0.461948,0.549618,0.611451,0.569957,0.703393
0.459188,0.550748,0.604343,0.573578,0.700072
0.456428,0.551878,0.597234,0.577199,0.696750
0.453668,0.553007,0.590125,0.580821,0.693429
0.450908,0.554137,0.583017,0.584442,0.690108
0.448148,0.555267,0.575908,0.588063,0.686786
0.445388,0.556396,0.568799,0.591684,0.683465
0.442628,0.557526,0.561691,0.595305,0.680144
0.439868,0.558656,0.554582,0.598926,0.676823
0.437108,0.559785,0.547474,0.602548,0.673501
0.434348,0.560915,0.540365,0.606169,0.670180
0.431588,0.562045,0.533256,0.609790,0.666859
0.428828,0.563174,0.526148,0.613411,0.663537
0.426068,0.564304,0.519039,0.617032,0.660216
0.423308,0.565434,0.511930,0.620653,0.656895
0.420548,0.566563,0.504822,0.624275,0.653574
0.417788,0.567693,0.497713,0.627896,0.650252
0.415028,0.568823,0.490605,0.631517,0.646931
0.412268,0.569952,0.483496,0.635138,0.643610
0.409508,0.571082,0.476387,0.638759,0.640288
0.406748,0.572212,0.469279,0.642380,0.636967
0.403988,0.573341,0.462170,0.646002,0.633646
0.401228,0.574471,0.455061,0.649623,0.630325
0.398468,0.575601,0.447953,0.653244,0.627003
0.395708,0.576730,0.440844,0.656865,0.623682
0.392948,0.577860,0.433736,0.660486,0.620361
0.390188,0.578990,0.426627,0.664107,0.617039
0.387489,0.580063,0.419650,0.667632,0.613798
0.385001,0.580943,0.413132,0.670821,0.610833
0.382783,0.581574,0.407198,0.673581,0.608222
0.380835,0.581957,0.401849,0.675912,0.605965
0.379157,0.582092,0.397085,0.677815,0.604061
0.377749,0.581978,0.392906,0.679289,0.602511
0.376611,0.581617,0.389312,0.680335,0.601314
0.375742,0.581007,0.386303,0.680952,0.600471
0.375144,0.580149,0.383879,0.681140,0.599981
0.374815,0.579043,0.382039,0.680900,0.599846
0.374756,0.577689,0.380785,0.680231,0.600063
0.374967,0.576087,0.380115,0.679133,0.600634
0.375448,0.574236,0.380030,0.677607,0.601559
0.376199,0.572137,0.380531,0.675652,0.602838
0.377220,0.569791,0.381616,0.673269,0.604470
0.378510,0.567196,0.383286,0.670457,0.606455
0.380071,0.564352,0.385540,0.667216,0.608794
0.381842,0.561316,0.388252,0.663641,0.611409
0.383675,0.558222,0.391096,0.659968,0.614105
0.385507,0.555129,0.393941,0.656295,0.616801
0.387340,0.552035,0.396786,0.652622,0.619497
0.389173,0.548942,0.399631,0.648949,0.622192
0.391005,0.545848,0.402475,0.645276,0.624888
0.392838,0.542755,0.405320,0.641603,0.627584
0.394671,0.539661,0.408165,0.637930,0.630279
0.396503,0.536568,0.411009,0.634257,0.632975
0.398336,0.533474,0.413854,0.630584,0.635671
0.400169,0.530381,0.416699,0.626911,0.638367
0.402001,0.527287,0.419544,0.623238,0.641062
0.403834,0.524194,0.422388,0.619565,0.643758
0.405667,0.521100,0.425233,0.615892,0.646454
0.407499,0.518007,0.428078,0.612219,0.649150
0.409332,0.514914,0.430922,0.608546,0.651845
0.411165,0.511820,0.433767,0.604873,0.654541
0.412998,0.508727,0.436612,0.601200,0.657237
0.414830,0.505633,0.439457,0.597527,0.659933
0.416663,0.502540,0.442301,0.593853,0.662628
0.418496,0.499446,0.445146,0.590180,0.665324
0.420328,0.496353,0.447991,0.586507,0.668020
0.422161,0.493259,0.450835,0.582834,0.670715
0.423994,0.490166,0.453680,0.579161,0.673411
0.425826,0.487072,0.456525,0.575488,0.676107
0.427659,0.483979,0.459370,0.571815,0.678803
0.429492,0.480885,0.462214,0.568142,0.681498
0.431324,0.477792,0.465059,0.564469,0.684194
0.433157,0.474698,0.467904,0.560796,0.686890
0.434990,0.471605,0.470748,0.557123,0.689586
0.436822,0.468512,0.473593,0.553450,0.692281
0.438655,0.465418,0.476438,0.549777,0.694977
0.440488,0.462325,0.479283,0.546104,0.697673
0.442320,0.459231,0.482127,0.542431,0.700368
0.444153,0.456138,0.484972,0.538758,0.703064
0.445986,0.453044,0.487817,0.535085,0.705760
0.447818,0.449951,0.490661,0.531412,0.708456
0.449651,0.446857,0.493506,0.527739,0.711151
0.451484,0.443764,0.496351,0.524066,0.713847
0.453316,0.440670,0.499196,0.520393,0.716543
0.455149,0.437577,0.502040,0.516720,0.719239
0.456982,0.434483,0.504885,0.513047,0.721934
0.458814,0.431390,0.507730,0.509374,0.724630
0.460647,0.428296,0.510574,0.505701,0.727326
0.462480,0.425203,0.513419,0.502028,0.730022
0.464313,0.422110,0.516264,0.498355,0.732717
0.466145,0.419016,0.519109,0.494682,0.735413
0.467978,0.415923,0.521953,0.491009,0.738109
0.469811,0.412829,0.524798,0.487336,0.740804
0.471643,0.409736,0.527643,0.483663,0.743500
0.473476,0.406642,0.530487,0.479990,0.746196
0.475309,0.403549,0.533332,0.476317,0.748892
0.477141,0.400455,0.536177,0.472644,0.751587
0.478974,0.397362,0.539022,0.468971,0.754283
0.480807,0.394268,0.541866,0.465298,0.756979
0.482639,0.391175,0.544711,0.461625,0.759675
0.484472,0.388081,0.547556,0.457952,0.762370
0.486305,0.384988,0.550400,0.454279,0.765066
0.488137,0.381894,0.553245,0.450606,0.767762
0.489970,0.378801,0.556090,0.446933,0.770457
0.491803,0.375708,0.558935,0.443260,0.773153
0.493635,0.372614,0.561779,0.439587,0.775849
0.495468,0.369521,0.564624,0.435914,0.778545
0.497301,0.366427,0.567469,0.432241,0.781240
0.499133,0.363334,0.570313,0.428568,0.783936
0.500801,0.360346,0.573132,0.424908,0.786500
0.502174,0.357548,0.575903,0.421271,0.788831
0.503242,0.354945,0.578626,0.417658,0.790919
0.504006,0.352538,0.581300,0.414069,0.792766
0.504466,0.350327,0.583926,0.410504,0.794370
0.504620,0.348311,0.586503,0.406963,0.795732
0.504470,0.346491,0.589031,0.403446,0.796852
0.504016,0.344866,0.591511,0.399953,0.797730
0.503257,0.343437,0.593942,0.396484,0.798366
0.502193,0.342204,0.596325,0.393039,0.798759
0.500825,0.341166,0.598659,0.389618,0.798911
0.499152,0.340324,0.600945,0.386221,0.798821
0.497174,0.339678,0.603181,0.382847,0.798488
0.494892,0.339227,0.605370,0.379498,0.797913
0.492306,0.338971,0.607509,0.376173,0.797097
0.489414,0.338912,0.609601,0.372872,0.796038
0.486218,0.339048,0.611643,0.369594,0.794737
0.482878,0.339276,0.613663,0.366328,0.793321
0.479528,0.339512,0.615680,0.363063,0.791897
0.476177,0.339747,0.617698,0.359798,0.790473
0.472826,0.339983,0.619716,0.356533,0.789049
0.469475,0.340218,0.621734,0.353267,0.787625
0.466124,0.340454,0.623752,0.350002,0.786201
0.462774,0.340689,0.625769,0.346737,0.784777
0.459423,0.340925,0.627787,0.343472,0.783353
0.456072,0.341160,0.629805,0.340207,0.781929
0.452721,0.341396,0.631823,0.336942,0.780505
0.449370,0.341631,0.633841,0.333676,0.779081
0.446019,0.341867,0.635859,0.330411,0.777657
0.442669,0.342102,0.637876,0.327146,0.776233
0.439318,0.342338,0.639894,0.323881,0.774809
0.435967,0.342573,0.641912,0.320616,0.773385
0.432616,0.342808,0.643930,0.317351,0.771961
