density,loudness,brightness,roughness,speed
0.325776,0.637899,0.664219,0.558859,0.245927
0.326710,0.636424,0.664490,0.560593,0.248517
0.327748,0.634784,0.664792,0.562520,0.251394
0.328889,0.632982,0.665124,0.564639,0.254559
0.330135,0.631015,0.665486,0.566950,0.258011
0.331483,0.628884,0.665878,0.569454,0.261750
0.332936,0.626590,0.666301,0.572150,0.265776
0.334492,0.624132,0.666753,0.575039,0.270090
0.336152,0.621511,0.667236,0.578120,0.274691
0.337916,0.618725,0.667749,0.581393,0.279580
0.339680,0.615938,0.668262,0.584669,0.284472
0.341445,0.613151,0.668775,0.587945,0.289364
0.343210,0.610364,0.669288,0.591220,0.294255
0.344975,0.607577,0.669801,0.594496,0.299147
0.346739,0.604790,0.670314,0.597771,0.304039
0.348504,0.602003,0.670827,0.601047,0.308930
0.350269,0.599216,0.671340,0.604322,0.313822
0.352033,0.596429,0.671853,0.607598,0.318714
0.353798,0.593642,0.672366,0.610874,0.323606
0.355563,0.590855,0.672879,0.614149,0.328497
0.357327,0.588068,0.673393,0.617425,0.333389
0.359092,0.585281,0.673906,0.620700,0.338281
0.360857,0.582493,0.674419,0.623976,0.343172
0.362622,0.579706,0.674932,0.627251,0.348064
0.364386,0.576919,0.675445,0.630527,0.352956
0.366151,0.574132,0.675958,0.633803,0.357848
0.367916,0.571345,0.676471,0.637078,0.362739
0.369680,0.568558,0.676984,0.640354,0.367631
0.371445,0.565771,0.677497,0.643629,0.372523
0.373210,0.562984,0.678010,0.646905,0.377414
0.374974,0.560197,0.678523,0.650181,0.382306
0.376739,0.557410,0.679037,0.653456,0.387198
0.378504,0.554623,0.679550,0.656732,0.392089
0.380269,0.551836,0.680063,0.660007,0.396981
0.382033,0.549049,0.680576,0.663283,0.401873
0.383798,0.546261,0.681089,0.666558,0.406765
0.385563,0.543474,0.681602,0.669834,0.411656
0.387327,0.540687,0.682115,0.673110,0.416548
0.389092,0.537900,0.682628,0.676385,0.421440
0.390857,0.535113,0.683141,0.679661,0.426331
0.392621,0.532326,0.683654,0.682936,0.431223
0.394386,0.529539,0.684167,0.686212,0.436115
0.396151,0.526752,0.684680,0.689488,0.441007
0.397916,0.523965,0.685194,0.692763,0.445898
0.399680,0.521178,0.685707,0.696039,0.450790
0.401445,0.518391,0.686220,0.699314,0.455682
0.403210,0.515604,0.686733,0.702590,0.460573
0.404974,0.512816,0.687246,0.705865,0.465465
0.406739,0.510029,0.687759,0.709141,0.470357
0.408504,0.507242,0.688272,0.712417,0.475249
0.410268,0.504455,0.688785,0.715692,0.480140
0.412033,0.501668,0.689298,0.718968,0.485032
0.413798,0.498881,0.689811,0.722243,0.489924
0.415563,0.496094,0.690324,0.725519,0.494815
0.417327,0.493307,0.690838,0.728795,0.499707
0.419092,0.490520,0.691351,0.732070,0.504599
0.420857,0.487733,0.691864,0.735346,0.509491
0.422621,0.484946,0.692377,0.738621,0.514382
0.424386,0.482159,0.692890,0.741897,0.519274
0.426151,0.479372,0.693403,0.745172,0.524166
0.427915,0.476584,0.693916,0.748448,0.529057
0.429680,0.473797,0.694429,0.751724,0.533949
0.431445,0.471010,0.694942,0.754999,0.538841
0.433210,0.468223,0.695455,0.758275,0.543733
0.434974,0.465436,0.695968,0.761550,0.548624
0.436739,0.462649,0.696482,0.764826,0.553516
0.438504,0.459862,0.696995,0.768102,0.558408
0.440228,0.457099,0.697472,0.771263,0.563259
0.441746,0.454461,0.697771,0.773841,0.567902
0.443043,0.451957,0.697876,0.775791,0.572322
0.444118,0.449587,0.697788,0.777115,0.576519
0.444971,0.447351,0.697507,0.777810,0.580492
0.445603,0.445250,0.697033,0.777879,0.584242
0.446013,0.443282,0.696366,0.777320,0.587768
0.446202,0.441448,0.695505,0.776134,0.591072
0.446169,0.439748,0.694452,0.774321,0.594151
0.445914,0.438182,0.693205,0.771880,0.597008
0.445438,0.436751,0.691765,0.768811,0.599641
0.444740,0.435453,0.690132,0.765116,0.602051
0.443820,0.434289,0.688306,0.760793,0.604237
0.442679,0.433260,0.686287,0.755843,0.606200
0.441316,0.432364,0.684074,0.750265,0.607940
0.439732,0.431603,0.681669,0.744060,0.609456
0.437925,0.430975,0.679070,0.737227,0.610749
0.435937,0.430458,0.676313,0.729879,0.611858
0.433929,0.429952,0.673538,0.722476,0.612948
0.431921,0.429447,0.670764,0.715072,0.614037
0.429913,0.428941,0.667989,0.707668,0.615127
0.427905,0.428436,0.665215,0.700264,0.616216
0.425897,0.427931,0.662440,0.692860,0.617306
0.423890,0.427425,0.659665,0.685456,0.618395
0.421882,0.426920,0.656891,0.678053,0.619485
0.419874,0.426414,0.654116,0.670649,0.620574
0.417866,0.425909,0.651342,0.663245,0.621664
0.415858,0.425404,0.648567,0.655841,0.622753
0.413850,0.424898,0.645793,0.648437,0.623843
0.411842,0.424393,0.643018,0.641033,0.624933
0.409834,0.423887,0.640244,0.633630,0.626022
0.407826,0.423382,0.637469,0.626226,0.627112
0.405818,0.422877,0.634695,0.618822,0.628201
0.403810,0.422371,0.631920,0.611418,0.629291
0.401802,0.421866,0.629145,0.604014,0.630380
0.399794,0.421360,0.626371,0.596610,0.631470
0.397786,0.420855,0.623596,0.589207,0.632559
0.395778,0.420349,0.620822,0.581803,0.633649
0.393770,0.419844,0.618047,0.574399,0.634738
0.391763,0.419339,0.615273,0.566995,0.635828
0.389755,0.418833,0.612498,0.559591,0.636917
0.387747,0.418328,0.609724,0.552187,0.638007
0.385739,0.417822,0.606949,0.544784,0.639096
0.383731,0.417317,0.604174,0.537380,0.640186
0.381723,0.416812,0.601400,0.529976,0.641275
0.379715,0.416306,0.598625,0.522572,0.642365
0.377707,0.415801,0.595851,0.515168,0.643454
0.375699,0.415295,0.593076,0.507764,0.644544
0.373691,0.414790,0.590302,0.500361,0.645633
0.371683,0.414285,0.587527,0.492957,0.646723
0.369675,0.413779,0.584753,0.485553,0.647812
0.367667,0.413274,0.581978,0.478149,0.648902
0.365659,0.412768,0.579204,0.470745,0.649991
0.363651,0.412263,0.576429,0.463341,0.651081
0.361643,0.411757,0.573654,0.455938,0.652170
0.359636,0.411252,0.570880,0.448534,0.653260
0.357628,0.410747,0.568105,0.441130,0.654349
0.355620,0.410241,0.565331,0.433726,0.655439
0.353612,0.409736,0.562556,0.426322,0.656528
0.351604,0.409230,0.559782,0.418918,0.657618
0.349596,0.408725,0.557007,0.411515,0.658707
0.347588,0.408220,0.554233,0.404111,0.659797
0.345580,0.407714,0.551458,0.396707,0.660886
0.343572,0.407209,0.548683,0.389303,0.661976
0.341564,0.406703,0.545909,0.381899,0.663065
0.339556,0.406198,0.543134,0.374495,0.664155
0.337548,0.405693,0.540360,0.367092,0.665244
0.335540,0.405187,0.537585,0.359688,0.666334
0.333532,0.404682,0.534811,0.352284,0.667423
0.331524,0.404176,0.532036,0.344880,0.668513
0.329516,0.403671,0.529262,0.337476,0.669602
0.327509,0.403165,0.526487,0.330072,0.670692
0.325501,0.402660,0.523713,0.322669,0.671781
0.323493,0.402155,0.520938,0.315265,0.672871
0.321485,0.401649,0.518163,0.307861,0.673960
0.319507,0.401209,0.515539,0.300585,0.675008
0.317613,0.400946,0.513322,0.293656,0.675942
0.315813,0.400883,0.511567,0.287119,0.676747
0.314106,0.401020,0.510272,0.280974,0.677425
0.312494,0.401357,0.509438,0.275221,0.677973
0.310975,0.401895,0.509064,0.269860,0.678394
0.309550,0.402632,0.509152,0.264890,0.678686
0.308219,0.403570,0.509700,0.260313,0.678849
0.306982,0.404707,0.510708,0.256128,0.678884
0.305838,0.406045,0.512178,0.252335,0.678791
0.304789,0.407583,0.514108,0.248933,0.678569
0.303833,0.409320,0.516499,0.245924,0.678219
0.302971,0.411258,0.519350,0.243306,0.677741
0.302203,0.413396,0.522663,0.241081,0.677134
0.301529,0.415734,0.526436,0.239247,0.676398
0.300949,0.418272,0.530669,0.237805,0.675535
0.300463,0.421011,0.535364,0.236756,0.674543
0.300041,0.423886,0.540373,0.235974,0.673463
0.299631,0.426786,0.545441,0.235242,0.672367
0.299220,0.429687,0.550509,0.234510,0.671270
0.298810,0.432587,0.555578,0.233778,0.670174
0.298400,0.435487,0.560646,0.233047,0.669078
0.297990,0.438388,0.565714,0.232315,0.667982
0.297579,0.441288,0.570782,0.231583,0.666885
0.297169,0.444189,0.575850,0.230851,0.665789
0.296759,0.447089,0.580918,0.230119,0.664693
0.296349,0.449990,0.585986,0.229387,0.663597
0.295938,0.452890,0.591054,0.228655,0.662501
0.295528,0.455790,0.596122,0.227923,0.661404
0.295118,0.458691,0.601190,0.227192,0.660308
0.294708,0.461591,0.606258,0.226460,0.659212
0.294298,0.464492,0.611326,0.225728,0.658116
0.293887,0.467392,0.616394,0.224996,0.657020
0.293477,0.470293,0.621462,0.224264,0.655923
0.293067,0.473193,0.626530,0.223532,0.654827
0.292657,0.476094,0.631598,0.222800,0.653731
0.292246,0.478994,0.636666,0.222069,0.652635
0.291836,0.481894,0.641734,0.221337,0.651538
0.291426,0.484795,0.646802,0.220605,0.650442
0.291016,0.487695,0.651870,0.219873,0.649346
0.290606,0.490596,0.656938,0.219141,0.648250
0.290195,0.493496,0.662006,0.218409,0.647154
0.289785,0.496397,0.667074,0.217677,0.646057
0.289375,0.499297,0.672142,0.216945,0.644961
0.288965,0.502198,0.677211,0.216214,0.643865
0.288554,0.505098,0.682279,0.215482,0.642769
0.288144,0.507998,0.687347,0.214750,0.641672
0.287734,0.510899,0.692415,0.214018,0.640576
0.287324,0.513799,0.697483,0.213286,0.639480
0.286913,0.516700,0.702551,0.212554,0.638384
0.286503,0.519600,0.707619,0.211822,0.637288
0.286093,0.522501,0.712687,0.211090,0.636191
0.285683,0.525401,0.717755,0.210359,0.635095
0.285273,0.528301,0.722823,0.209627,0.633999
0.284862,0.531202,0.727891,0.208895,0.632903
0.284452,0.534102,0.732959,0.208163,0.631807
0.284042,0.537003,0.738027,0.207431,0.630710
0.283632,0.539903,0.743095,0.206699,0.629614
0.283221,0.542804,0.748163,0.205967,0.628518
0.282811,0.545704,0.753231,0.205236,0.627422
0.282401,0.548605,0.758299,0.204504,0.626325
0.281991,0.551505,0.763367,0.203772,0.625229
0.281581,0.554405,0.768435,0.203040,0.624133
0.281170,0.557306,0.773503,0.202308,0.623037
0.280760,0.560206,0.778571,0.201576,0.621941
0.280350,0.563107,0.783639,0.200844,0.620844
0.279940,0.566007,0.788707,0.200112,0.619748
0.279529,0.568908,0.793776,0.199381,0.618652
0.279119,0.571808,0.798844,0.198649,0.617556
0.278709,0.574709,0.803912,0.197917,0.616460
0.278299,0.577609,0.808980,0.197185,0.615363
0.277888,0.580509,0.814048,0.196453,0.614267
0.277478,0.583410,0.819116,0.195721,0.613171
0.277068,0.586310,0.824184,0.194989,0.612075
0.276658,0.589211,0.829252,0.194257,0.610978
0.276315,0.592040,0.834044,0.193720,0.609825
0.276113,0.594722,0.838267,0.193584,0.608555
0.276070,0.597236,0.841846,0.193903,0.607151
0.276185,0.599585,0.844780,0.194677,0.605615
0.276459,0.601766,0.847069,0.195906,0.603945
0.276891,0.603781,0.848715,0.197589,0.602143
0.277482,0.605628,0.849715,0.199726,0.600208
0.278232,0.607309,0.850072,0.202318,0.598140
0.279141,0.608824,0.849784,0.205365,0.595938
0.280208,0.610171,0.848852,0.208867,0.593604
0.281434,0.611352,0.847275,0.212823,0.591137
0.282818,0.612366,0.845054,0.217234,0.588537
0.284361,0.613213,0.842188,0.222099,0.585804
0.286063,0.613893,0.838678,0.227420,0.582938
0.287923,0.614407,0.834524,0.233194,0.579940
0.289942,0.614754,0.829725,0.239424,0.576808
0.292120,0.614934,0.824282,0.246108,0.573543
0.294391,0.615016,0.818461,0.253058,0.570200
0.296681,0.615078,0.812560,0.260066,0.566841
0.298972,0.615139,0.806658,0.267073,0.563482
0.301262,0.615200,0.800757,0.274080,0.560123
0.303553,0.615262,0.794855,0.281088,0.556763
0.305843,0.615323,0.788954,0.288095,0.553404
0.308134,0.615385,0.783053,0.295102,0.550045
0.310424,0.615446,0.777151,0.302110,0.546686
0.312715,0.615508,0.771250,0.309117,0.543326
0.315005,0.615569,0.765349,0.316124,0.539967
0.317296,0.615631,0.759447,0.323132,0.536608
0.319586,0.615692,0.753546,0.330139,0.533249
0.321877,0.615754,0.747644,0.337146,0.529889
0.324167,0.615815,0.741743,0.344154,0.526530
0.326458,0.615876,0.735842,0.351161,0.523171
0.328748,0.615938,0.729940,0.358168,0.519812
0.331039,0.615999,0.724039,0.365176,0.516452
0.333329,0.616061,0.718138,0.372183,0.513093
0.335620,0.616122,0.712236,0.379190,0.509734
0.337910,0.616184,0.706335,0.386198,0.506375
0.340201,0.616245,0.700433,0.393205,0.503015
0.342491,0.616307,0.694532,0.400212,0.499656
0.344782,0.616368,0.688631,0.407220,0.496297
0.347073,0.616430,0.682729,0.414227,0.492938
0.349363,0.616491,0.676828,0.421234,0.489578
0.351654,0.616553,0.670927,0.428242,0.486219
0.353944,0.616614,0.665025,0.435249,0.482860
0.356235,0.616675,0.659124,0.442256,0.479501
0.358525,0.616737,0.653222,0.449264,0.476141
0.360816,0.616798,0.647321,0.456271,0.472782
0.363106,0.616860,0.641420,0.463278,0.469423
0.365397,0.616921,0.635518,0.470286,0.466064
0.367687,0.616983,0.629617,0.477293,0.462704
0.369978,0.617044,0.623716,0.484300,0.459345
0.372268,0.617106,0.617814,0.491308,0.455986
0.374559,0.617167,0.611913,0.498315,0.452627
0.376849,0.617229,0.606011,0.505322,0.449267
0.379140,0.617290,0.600110,0.512330,0.445908
0.381430,0.617351,0.594209,0.519337,0.442549
0.383721,0.617413,0.588307,0.526344,0.439190
0.386011,0.617474,0.582406,0.533352,0.435830
0.388302,0.617536,0.576505,0.540359,0.432471
0.390592,0.617597,0.570603,0.547366,0.429112
0.392883,0.617659,0.564702,0.554374,0.425752
0.395173,0.617720,0.558800,0.561381,0.422393
0.397464,0.617782,0.552899,0.568388,0.419034
0.399754,0.617843,0.546998,0.575396,0.415675
0.402045,0.617905,0.541096,0.582403,0.412315
0.404335,0.617966,0.535195,0.589410,0.408956
0.406626,0.618027,0.529294,0.596418,0.405597
0.408917,0.618089,0.523392,0.603425,0.402238
0.411207,0.618150,0.517491,0.610432,0.398878
0.413498,0.618212,0.511589,0.617440,0.395519
0.415788,0.618273,0.505688,0.624447,0.392160
0.418079,0.618335,0.499787,0.631454,0.388801
0.420369,0.618396,0.493885,0.638462,0.385441
0.422660,0.618458,0.487984,0.645469,0.382082
0.424950,0.618519,0.482082,0.652476,0.378723
0.427069,0.618557,0.476297,0.659250,0.375534
0.428866,0.618551,0.470731,0.665584,0.372666
0.430312,0.618497,0.465402,0.671441,0.370147
0.431409,0.618395,0.460310,0.676821,0.367975
0.432156,0.618245,0.455455,0.681724,0.366152
0.432552,0.618047,0.450838,0.686149,0.364677
0.432599,0.617802,0.446458,0.690098,0.363550
0.432296,0.617508,0.442316,0.693569,0.362771
0.431642,0.617167,0.438410,0.696564,0.362340
0.430639,0.616777,0.434742,0.699081,0.362258
0.429286,0.616340,0.431311,0.701122,0.362524
0.427583,0.615855,0.428118,0.702685,0.363138
0.425530,0.615322,0.425162,0.703771,0.364100
0.423126,0.614741,0.422443,0.704381,0.365410
0.420373,0.614112,0.419962,0.704513,0.367068
0.417270,0.613435,0.417717,0.704168,0.369075
0.413817,0.612711,0.415710,0.703346,0.371430
0.410179,0.611961,0.413829,0.702272,0.373968
0.406512,0.611207,0.411967,0.701158,0.376536
0.402845,0.610453,0.410105,0.700044,0.379104
0.399178,0.609699,0.408243,0.698931,0.381671
0.395511,0.608945,0.406381,0.697817,0.384239
0.391844,0.608191,0.404519,0.696704,0.386806
0.388177,0.607437,0.402658,0.695590,0.389374
0.384510,0.606683,0.400796,0.694476,0.391941
0.380843,0.605929,0.398934,0.693363,0.394509
0.377176,0.605175,0.397072,0.692249,0.397076
0.373509,0.604421,0.395210,0.691136,0.399644
0.369842,0.603667,0.393348,0.690022,0.402212
0.366175,0.602913,0.391486,0.688909,0.404779
0.362508,0.602159,0.389624,0.687795,0.407347
0.358841,0.601405,0.387762,0.686681,0.409914
0.355174,0.600652,0.385901,0.685568,0.412482
0.351507,0.599898,0.384039,0.684454,0.415049
0.347841,0.599144,0.382177,0.683341,0.417617
0.344174,0.598390,0.380315,0.682227,0.420184
0.340507,0.597636,0.378453,0.681113,0.422752
0.336840,0.596882,0.376591,0.680000,0.425320
0.333173,0.596128,0.374729,0.678886,0.427887
0.329506,0.595374,0.372867,0.677773,0.430455
0.325839,0.594620,0.371006,0.676659,0.433022
0.322172,0.593866,0.369144,0.675545,0.435590
0.318505,0.593112,0.367282,0.674432,0.438157
0.314838,0.592358,0.365420,0.673318,0.440725
0.311171,0.591604,0.363558,0.672205,0.443293
0.307504,0.590850,0.361696,0.671091,0.445860
0.303837,0.590096,0.359834,0.669978,0.448428
0.300170,0.589342,0.357972,0.668864,0.450995
0.296503,0.588588,0.356110,0.667750,0.453563
0.292836,0.587835,0.354249,0.666637,0.456130
0.289169,0.587081,0.352387,0.665523,0.458698
0.285502,0.586327,0.350525,0.664410,0.461265
0.281835,0.585573,0.348663,0.663296,0.463833
0.278168,0.584819,0.346801,0.662182,0.466401
0.274501,0.584065,0.344939,0.661069,0.468968
0.270834,0.583311,0.343077,0.659955,0.471536
0.267167,0.582557,0.341215,0.658842,0.474103
0.263500,0.581803,0.339353,0.657728,0.476671
0.259833,0.581049,0.337492,0.656614,0.479238
0.256166,0.580295,0.335630,0.655501,0.481806
0.252499,0.579541,0.333768,0.654387,0.484373
0.248832,0.578787,0.331906,0.653274,0.486941
0.245165,0.578033,0.330044,0.652160,0.489509
0.241498,0.577279,0.328182,0.651046,0.492076
0.237831,0.576525,0.326320,0.649933,0.494644
0.234164,0.575772,0.324458,0.648819,0.497211
0.230497,0.575018,0.322596,0.647706,0.499779
0.226830,0.574264,0.320735,0.646592,0.502346
0.223163,0.573510,0.318873,0.645479,0.504914
0.219496,0.572756,0.317011,0.644365,0.507481
0.215829,0.572002,0.315149,0.643251,0.510049
0.212162,0.571248,0.313287,0.642138,0.512617
0.208496,0.570494,0.311425,0.641024,0.515184
0.204829,0.569740,0.309563,0.639911,0.517752
0.201162,0.568986,0.307701,0.638797,0.520319
0.197820,0.568296,0.306130,0.637555,0.522752
0.195113,0.567730,0.305127,0.636062,0.524921
0.193042,0.567289,0.304693,0.634318,0.526826
0.191606,0.566973,0.304826,0.632323,0.528468
0.190805,0.566781,0.305528,0.630077,0.529846
0.190641,0.566713,0.306799,0.627579,0.530960
0.191111,0.566771,0.308637,0.624831,0.531811
0.192217,0.566952,0.311044,0.621832,0.532397
0.193958,0.567259,0.314020,0.618581,0.532721
0.196335,0.567690,0.317563,0.615080,0.532780
0.199347,0.568245,0.321675,0.611327,0.532576
0.202994,0.568926,0.326355,0.607323,0.532108
0.207277,0.569730,0.331604,0.603069,0.531376
0.212195,0.570660,0.337421,0.598563,0.530381
0.217749,0.571714,0.343806,0.593806,0.529122
0.223938,0.572892,0.350760,0.588798,0.527599
0.230763,0.574195,0.358282,0.583539,0.525813
0.237912,0.575562,0.366094,0.578152,0.523891
0.245062,0.576929,0.373907,0.572765,0.521970
0.252211,0.578295,0.381719,0.567378,0.520049
0.259361,0.579662,0.389532,0.561990,0.518127
0.266510,0.581029,0.397344,0.556603,0.516206
0.273659,0.582396,0.405157,0.551216,0.514285
0.280809,0.583763,0.412969,0.545828,0.512364
0.287958,0.585129,0.420782,0.540441,0.510442
0.295108,0.586496,0.428594,0.535054,0.508521
0.302257,0.587863,0.436407,0.529666,0.506600
0.309407,0.589230,0.444219,0.524279,0.504678
0.316556,0.590596,0.452032,0.518892,0.502757
0.323706,0.591963,0.459844,0.513505,0.500836
0.330855,0.593330,0.467657,0.508117,0.498915
0.338005,0.594697,0.475469,0.502730,0.496993
0.345154,0.596064,0.483282,0.497343,0.495072
0.352304,0.597430,0.491094,0.491955,0.493151
0.359453,0.598797,0.498907,0.486568,0.491229
0.366602,0.600164,0.506719,0.481181,0.489308
0.373752,0.601531,0.514532,0.475793,0.487387
0.380901,0.602897,0.522344,0.470406,0.485466
0.388051,0.604264,0.530157,0.465019,0.483544
0.395200,0.605631,0.537969,0.459632,0.481623
0.402350,0.606998,0.545782,0.454244,0.479702
0.409499,0.608365,0.553594,0.448857,0.477780
0.416649,0.609731,0.561407,0.443470,0.475859
0.423798,0.611098,0.569219,0.438082,0.473938
0.430948,0.612465,0.577032,0.432695,0.472017
0.438097,0.613832,0.584844,0.427308,0.470095
0.445247,0.615198,0.592657,0.421920,0.468174
0.452396,0.616565,0.600469,0.416533,0.466253
0.459545,0.617932,0.608282,0.411146,0.464331
0.466695,0.619299,0.616094,0.405758,0.462410
0.473844,0.620666,0.623907,0.400371,0.460489
0.480994,0.622032,0.631719,0.394984,0.458568
0.488143,0.623399,0.639532,0.389597,0.456646
0.495293,0.624766,0.647344,0.384209,0.454725
0.502442,0.626133,0.655157,0.378822,0.452804
0.509592,0.627499,0.662969,0.373435,0.450882
0.516741,0.628866,0.670782,0.368047,0.448961
0.523891,0.630233,0.678595,0.362660,0.447040
0.531040,0.631600,0.686407,0.357273,0.445119
0.538190,0.632966,0.694220,0.351885,0.443197
0.545339,0.634333,0.702032,0.346498,0.441276
0.552488,0.635700,0.709845,0.341111,0.439355
0.559638,0.637067,0.717657,0.335724,0.437433
0.566787,0.638434,0.725470,0.330336,0.435512
0.573937,0.639800,0.733282,0.324949,0.433591
0.581086,0.641167,0.741095,0.319562,0.431670
