density,loudness,brightness,roughness,speed
0.611743,0.582455,0.507714,0.209234,0.841403
0.609643,0.580241,0.506686,0.210140,0.839539
0.607310,0.577780,0.505545,0.211146,0.837468
0.604744,0.575074,0.504290,0.212253,0.835190
0.601944,0.572123,0.502920,0.213460,0.832705
0.598912,0.568925,0.501437,0.214769,0.830014
0.595647,0.565481,0.499839,0.216177,0.827115
0.592148,0.561792,0.498128,0.217686,0.824010
0.588417,0.557857,0.496302,0.219296,0.820698
0.584452,0.553676,0.494363,0.221006,0.817178
0.580485,0.549493,0.492422,0.222717,0.813658
0.576519,0.545311,0.490482,0.224429,0.810137
0.572552,0.541128,0.488541,0.226140,0.806616
0.568586,0.536945,0.486601,0.227851,0.803095
0.564619,0.532762,0.484660,0.229562,0.799574
0.560652,0.528579,0.482720,0.231273,0.796053
0.556686,0.524396,0.480779,0.232984,0.792532
0.552719,0.520213,0.478838,0.234695,0.789011
0.548752,0.516030,0.476898,0.236406,0.785490
0.544786,0.511847,0.474957,0.238118,0.781969
0.540819,0.507664,0.473017,0.239829,0.778448
0.536853,0.503481,0.471076,0.241540,0.774927
0.532886,0.499298,0.469136,0.243251,0.771406
0.528919,0.495115,0.467195,0.244962,0.767885
0.524953,0.490932,0.465255,0.246673,0.764365
0.520986,0.486750,0.463314,0.248384,0.760844
0.517019,0.482567,0.461374,0.250095,0.757323
0.513053,0.478384,0.459433,0.251807,0.753802
0.509086,0.474201,0.457493,0.253518,0.750281
0.505120,0.470018,0.455552,0.255229,0.746760
0.501153,0.465835,0.453612,0.256940,0.743239
0.497186,0.461652,0.451671,0.258651,0.739718
0.493220,0.457469,0.449730,0.260362,0.736197
0.489253,0.453286,0.447790,0.262073,0.732676
0.485286,0.449103,0.445849,0.263784,0.729155
0.481320,0.444920,0.443909,0.265496,0.725634
0.477353,0.440737,0.441968,0.267207,0.722113
0.473387,0.436554,0.440028,0.268918,0.718592
0.469420,0.432371,0.438087,0.270629,0.715072
0.465453,0.428189,0.436147,0.272340,0.711551
0.461487,0.424006,0.434206,0.274051,0.708030
0.457520,0.419823,0.432266,0.275762,0.704509
0.453553,0.415640,0.430325,0.277474,0.700988
0.449587,0.411457,0.428385,0.279185,0.697467
0.445620,0.407274,0.426444,0.280896,0.693946
0.441654,0.403091,0.424504,0.282607,0.690425
0.437687,0.398908,0.422563,0.284318,0.686904
0.433720,0.394725,0.420622,0.286029,0.683383
0.429754,0.390542,0.418682,0.287740,0.679862
0.425787,0.386359,0.416741,0.289451,0.676341
0.421820,0.382176,0.414801,0.291163,0.672820
0.417854,0.377993,0.412860,0.292874,0.669299
0.413887,0.373810,0.410920,0.294585,0.665778
0.409921,0.369628,0.408979,0.296296,0.662258
0.405954,0.365445,0.407039,0.298007,0.658737
0.401987,0.361262,0.405098,0.299718,0.655216
0.398021,0.357079,0.403158,0.301429,0.651695
0.394054,0.352896,0.401217,0.303140,0.648174
0.390087,0.348713,0.399277,0.304852,0.644653
0.386121,0.344530,0.397336,0.306563,0.641132
0.382154,0.340347,0.395396,0.308274,0.637611
0.378188,0.336164,0.393455,0.309985,0.634090
0.374221,0.331981,0.391514,0.311696,0.630569
0.370254,0.327798,0.389574,0.313407,0.627048
0.366288,0.323615,0.387633,0.315118,0.623527
0.362321,0.319432,0.385693,0.316829,0.620006
0.358354,0.315249,0.383752,0.318541,0.616485
0.354388,0.311066,0.381812,0.320252,0.612965
0.350421,0.306884,0.379871,0.321963,0.609444
0.346488,0.302723,0.377954,0.323670,0.605955
0.342953,0.298833,0.376316,0.325330,0.602862
0.339846,0.295233,0.374977,0.326941,0.600192
0.337167,0.291924,0.373938,0.328501,0.597945
0.334915,0.288905,0.373198,0.330011,0.596121
0.333092,0.286176,0.372757,0.331470,0.594721
0.331696,0.283737,0.372616,0.332880,0.593744
0.330728,0.281588,0.372775,0.334239,0.593190
0.330188,0.279730,0.373232,0.335548,0.593060
0.330075,0.278161,0.373990,0.336806,0.593353
0.330390,0.276883,0.375046,0.338015,0.594069
0.331133,0.275896,0.376403,0.339173,0.595208
0.332304,0.275198,0.378058,0.340282,0.596771
0.333903,0.274791,0.380013,0.341340,0.598757
0.335929,0.274674,0.382268,0.342347,0.601167
0.338383,0.274847,0.384822,0.343305,0.603999
0.341265,0.275310,0.387675,0.344212,0.607256
0.344543,0.276041,0.390805,0.345073,0.610903
0.347856,0.276797,0.393960,0.345930,0.614586
0.351169,0.277553,0.397116,0.346786,0.618269
0.354483,0.278309,0.400271,0.347643,0.621952
0.357796,0.279065,0.403426,0.348500,0.625635
0.361110,0.279821,0.406582,0.349356,0.629318
0.364423,0.280577,0.409737,0.350213,0.633001
0.367737,0.281333,0.412893,0.351070,0.636684
0.371050,0.282089,0.416048,0.351926,0.640367
0.374364,0.282845,0.419203,0.352783,0.644050
0.377677,0.283601,0.422359,0.353640,0.647733
0.380990,0.284357,0.425514,0.354496,0.651416
0.384304,0.285113,0.428670,0.355353,0.655100
0.387617,0.285869,0.431825,0.356210,0.658783
0.390931,0.286625,0.434980,0.357067,0.662466
0.394244,0.287381,0.438136,0.357923,0.666149
0.397558,0.288137,0.441291,0.358780,0.669832
0.400871,0.288893,0.444446,0.359637,0.673515
0.404185,0.289649,0.447602,0.360493,0.677198
0.407498,0.290405,0.450757,0.361350,0.680881
0.410811,0.291161,0.453913,0.362207,0.684564
0.414125,0.291918,0.457068,0.363063,0.688247
0.417438,0.292674,0.460223,0.363920,0.691930
0.420752,0.293430,0.463379,0.364777,0.695613
0.424065,0.294186,0.466534,0.365633,0.699296
0.427379,0.294942,0.469689,0.366490,0.702979
0.430692,0.295698,0.472845,0.367347,0.706662
0.434006,0.296454,0.476000,0.368203,0.710345
0.437319,0.297210,0.479156,0.369060,0.714028
0.440632,0.297966,0.482311,0.369917,0.717712
0.443946,0.298722,0.485466,0.370773,0.721395
0.447259,0.299478,0.488622,0.371630,0.725078
0.450573,0.300234,0.491777,0.372487,0.728761
0.453886,0.300990,0.494933,0.373343,0.732444
0.457200,0.301746,0.498088,0.374200,0.736127
0.460513,0.302502,0.501243,0.375057,0.739810
0.463827,0.303258,0.504399,0.375913,0.743493
0.467140,0.304014,0.507554,0.376770,0.747176
0.470453,0.304770,0.510709,0.377627,0.750859
0.473767,0.305526,0.513865,0.378483,0.754542
0.477080,0.306282,0.517020,0.379340,0.758225
0.480394,0.307038,0.520176,0.380197,0.761908
0.483707,0.307794,0.523331,0.381053,0.765591
0.487021,0.308550,0.526486,0.381910,0.769274
0.490334,0.309306,0.529642,0.382767,0.772957
0.493647,0.310062,0.532797,0.383623,0.776641
0.496961,0.310818,0.535952,0.384480,0.780324
0.500274,0.311574,0.539108,0.385337,0.784007
0.503588,0.312330,0.542263,0.386194,0.787690
0.506901,0.313086,0.545419,0.387050,0.791373
0.510215,0.313842,0.548574,0.387907,0.795056
0.513528,0.314598,0.551729,0.388764,0.798739
0.516842,0.315354,0.554885,0.389620,0.802422
0.520155,0.316110,0.558040,0.390477,0.806105
0.523468,0.316866,0.561196,0.391334,0.809788
0.526782,0.317622,0.564351,0.392190,0.813471
0.530095,0.318378,0.567506,0.393047,0.817154
0.533409,0.319134,0.570662,0.393904,0.820837
0.536722,0.319890,0.573817,0.394760,0.824520
0.540036,0.320646,0.576972,0.395617,0.828203
0.543278,0.321413,0.580090,0.396438,0.831854
0.546081,0.322251,0.582972,0.397035,0.835301
0.548379,0.323168,0.585584,0.397377,0.838514
0.550172,0.324167,0.587926,0.397462,0.841494
0.551460,0.325246,0.589998,0.397290,0.844239
0.552242,0.326405,0.591799,0.396862,0.846752
0.552519,0.327646,0.593330,0.396177,0.849030
0.552290,0.328966,0.594590,0.395237,0.851075
0.551556,0.330367,0.595580,0.394039,0.852885
0.550317,0.331849,0.596300,0.392585,0.854463
0.548573,0.333412,0.596750,0.390875,0.855806
0.546323,0.335054,0.596929,0.388908,0.856916
0.543569,0.336778,0.596838,0.386685,0.857792
0.540308,0.338582,0.596476,0.384206,0.858434
0.536543,0.340466,0.595844,0.381470,0.858842
0.532272,0.342432,0.594942,0.378477,0.859017
0.527496,0.344477,0.593770,0.375228,0.858958
0.522284,0.346592,0.592364,0.371758,0.858697
0.516998,0.348719,0.590919,0.368250,0.858402
0.511712,0.350846,0.589474,0.364743,0.858107
0.506427,0.352973,0.588028,0.361235,0.857812
0.501141,0.355100,0.586583,0.357727,0.857518
0.495855,0.357227,0.585138,0.354220,0.857223
0.490569,0.359354,0.583693,0.350712,0.856928
0.485283,0.361481,0.582248,0.347204,0.856633
0.479997,0.363608,0.580803,0.343697,0.856338
0.474712,0.365735,0.579357,0.340189,0.856043
0.469426,0.367862,0.577912,0.336681,0.855748
0.464140,0.369988,0.576467,0.333173,0.855453
0.458854,0.372115,0.575022,0.329666,0.855159
0.453568,0.374242,0.573577,0.326158,0.854864
0.448282,0.376369,0.572131,0.322650,0.854569
0.442997,0.378496,0.570686,0.319143,0.854274
0.437711,0.380623,0.569241,0.315635,0.853979
0.432425,0.382750,0.567796,0.312127,0.853684
0.427139,0.384877,0.566351,0.308620,0.853389
0.421853,0.387004,0.564905,0.305112,0.853094
0.416567,0.389131,0.563460,0.301604,0.852800
0.411282,0.391258,0.562015,0.298097,0.852505
0.405996,0.393385,0.560570,0.294589,0.852210
0.400710,0.395512,0.559125,0.291081,0.851915
0.395424,0.397638,0.557679,0.287574,0.851620
0.390138,0.399765,0.556234,0.284066,0.851325
0.384852,0.401892,0.554789,0.280558,0.851030
0.379566,0.404019,0.553344,0.277051,0.850735
0.374281,0.406146,0.551899,0.273543,0.850441
0.368995,0.408273,0.550453,0.270035,0.850146
0.363709,0.410400,0.549008,0.266528,0.849851
0.358423,0.412527,0.547563,0.263020,0.849556
0.353137,0.414654,0.546118,0.259512,0.849261
0.347851,0.416781,0.544673,0.256005,0.848966
0.342566,0.418908,0.543227,0.252497,0.848671
0.337280,0.421035,0.541782,0.248989,0.848376
0.331994,0.423162,0.540337,0.245482,0.848082
0.326708,0.425288,0.538892,0.241974,0.847787
0.321422,0.427415,0.537447,0.238466,0.847492
0.316136,0.429542,0.536001,0.234959,0.847197
0.310851,0.431669,0.534556,0.231451,0.846902
0.305565,0.433796,0.533111,0.227943,0.846607
0.300279,0.435923,0.531666,0.224436,0.846312
0.294993,0.438050,0.530221,0.220928,0.846017
0.289707,0.440177,0.528775,0.217420,0.845723
0.284421,0.442304,0.527330,0.213912,0.845428
0.279136,0.444431,0.525885,0.210405,0.845133
0.273850,0.446558,0.524440,0.206897,0.844838
0.268564,0.448685,0.522995,0.203389,0.844543
0.263278,0.450812,0.521549,0.199882,0.844248
0.257992,0.452938,0.520104,0.196374,0.843953
0.252706,0.455065,0.518659,0.192866,0.843658
0.247421,0.457192,0.517214,0.189359,0.843364
0.242135,0.459319,0.515769,0.185851,0.843069
0.236849,0.461446,0.514323,0.182343,0.842774
0.231563,0.463573,0.512878,0.178836,0.842479
0.226277,0.465700,0.511433,0.175328,0.842184
0.220991,0.467827,0.509988,0.171820,0.841889
0.215705,0.469954,0.508543,0.168313,0.841594
0.210420,0.472081,0.507097,0.164805,0.841299
0.205220,0.474193,0.505676,0.161434,0.840922
0.200392,0.476243,0.504359,0.158653,0.840189
0.196017,0.478217,0.503169,0.156592,0.839021
0.192096,0.480115,0.502105,0.155251,0.837420
0.188628,0.481937,0.501169,0.154630,0.835384
0.185613,0.483683,0.500359,0.154728,0.832913
0.183052,0.485352,0.499676,0.155547,0.830009
0.180944,0.486946,0.499120,0.157085,0.826670
0.179290,0.488463,0.498691,0.159343,0.822898
0.178089,0.489904,0.498389,0.162321,0.818690
0.177342,0.491269,0.498214,0.166019,0.814049
0.177047,0.492558,0.498165,0.170437,0.808973
0.177207,0.493771,0.498243,0.175575,0.803464
0.177819,0.494908,0.498449,0.181432,0.797520
0.178885,0.495969,0.498781,0.188010,0.791141
0.180405,0.496953,0.499240,0.195307,0.784329
0.182378,0.497862,0.499825,0.203324,0.777082
0.184720,0.498708,0.500514,0.211928,0.769481
0.187150,0.499540,0.501228,0.220671,0.761797
0.189580,0.500372,0.501942,0.229415,0.754112
0.192011,0.501204,0.502656,0.238158,0.746427
0.194441,0.502035,0.503370,0.246902,0.738742
0.196871,0.502867,0.504083,0.255645,0.731057
0.199302,0.503699,0.504797,0.264389,0.723372
0.201732,0.504530,0.505511,0.273133,0.715687
0.204162,0.505362,0.506225,0.281876,0.708002
0.206592,0.506194,0.506938,0.290620,0.700318
0.209023,0.507026,0.507652,0.299363,0.692633
0.211453,0.507857,0.508366,0.308107,0.684948
0.213883,0.508689,0.509080,0.316850,0.677263
0.216314,0.509521,0.509793,0.325594,0.669578
0.218744,0.510352,0.510507,0.334337,0.661893
0.221174,0.511184,0.511221,0.343081,0.654208
0.223605,0.512016,0.511935,0.351824,0.646523
0.226035,0.512848,0.512649,0.360568,0.638838
0.228465,0.513679,0.513362,0.369312,0.631154
0.230895,0.514511,0.514076,0.378055,0.623469
0.233326,0.515343,0.514790,0.386799,0.615784
0.235756,0.516174,0.515504,0.395542,0.608099
0.238186,0.517006,0.516217,0.404286,0.600414
0.240617,0.517838,0.516931,0.413029,0.592729
0.243047,0.518669,0.517645,0.421773,0.585044
0.245477,0.519501,0.518359,0.430516,0.577359
0.247907,0.520333,0.519072,0.439260,0.569674
0.250338,0.521165,0.519786,0.448003,0.561990
0.252768,0.521996,0.520500,0.456747,0.554305
0.255198,0.522828,0.521214,0.465490,0.546620
0.257629,0.523660,0.521928,0.474234,0.538935
0.260059,0.524491,0.522641,0.482978,0.531250
0.262489,0.525323,0.523355,0.491721,0.523565
0.264920,0.526155,0.524069,0.500465,0.515880
0.267350,0.526987,0.524783,0.509208,0.508195
0.269780,0.527818,0.525496,0.517952,0.500510
0.272210,0.528650,0.526210,0.526695,0.492826
0.274641,0.529482,0.526924,0.535439,0.485141
0.277071,0.530313,0.527638,0.544182,0.477456
0.279501,0.531145,0.528351,0.552926,0.469771
0.281932,0.531977,0.529065,0.561669,0.462086
0.284362,0.532809,0.529779,0.570413,0.454401
0.286792,0.533640,0.530493,0.579156,0.446716
0.289223,0.534472,0.531207,0.587900,0.439031
0.291653,0.535304,0.531920,0.596644,0.431346
0.294083,0.536135,0.532634,0.605387,0.423662
0.296513,0.536967,0.533348,0.614131,0.415977
0.298944,0.537799,0.534062,0.622874,0.408292
0.301374,0.538630,0.534775,0.631618,0.400607
0.303804,0.539462,0.535489,0.640361,0.392922
0.306235,0.540294,0.536203,0.649105,0.385237
0.308665,0.541126,0.536917,0.657848,0.377552
0.311095,0.541957,0.537630,0.666592,0.369867
0.313525,0.542789,0.538344,0.675335,0.362182
0.315956,0.543621,0.539058,0.684079,0.354498
0.318386,0.544452,0.539772,0.692822,0.346813
0.320816,0.545284,0.540486,0.701566,0.339128
0.323247,0.546116,0.541199,0.710310,0.331443
0.325677,0.546948,0.541913,0.719053,0.323758
0.328107,0.547779,0.542627,0.727797,0.316073
0.330556,0.548617,0.543362,0.736366,0.308519
0.333070,0.549478,0.544172,0.744331,0.301417
0.335667,0.550368,0.545078,0.751524,0.294893
0.338348,0.551287,0.546079,0.757945,0.288947
0.341111,0.552234,0.547176,0.763595,0.283579
0.343957,0.553210,0.548368,0.768472,0.278788
0.346886,0.554215,0.549656,0.772579,0.274575
0.349898,0.555249,0.551039,0.775913,0.270940
0.352993,0.556312,0.552518,0.778476,0.267883
0.356172,0.557404,0.554093,0.780267,0.265404
0.359433,0.558525,0.555762,0.781287,0.263502
0.362777,0.559674,0.557528,0.781535,0.262178
0.366204,0.560852,0.559389,0.781011,0.261432
0.369715,0.562060,0.561345,0.779716,0.261264
0.373308,0.563296,0.563397,0.777648,0.261673
0.376984,0.564561,0.565545,0.774810,0.262661
0.380744,0.565854,0.567788,0.771199,0.264226
0.384568,0.567171,0.570105,0.766986,0.266242
0.388411,0.568494,0.572444,0.762597,0.268390
0.392254,0.569817,0.574784,0.758208,0.270538
0.396097,0.571139,0.577123,0.753819,0.272686
0.399940,0.572462,0.579463,0.749430,0.274834
0.403783,0.573785,0.581802,0.745041,0.276982
0.407626,0.575108,0.584141,0.740652,0.279130
0.411469,0.576431,0.586481,0.736262,0.281278
0.415312,0.577754,0.588820,0.731873,0.283426
0.419155,0.579077,0.591159,0.727484,0.285575
0.422999,0.580400,0.593499,0.723095,0.287723
0.426842,0.581723,0.595838,0.718706,0.289871
0.430685,0.583045,0.598177,0.714317,0.292019
0.434528,0.584368,0.600517,0.709928,0.294167
0.438371,0.585691,0.602856,0.705539,0.296315
0.442214,0.587014,0.605196,0.701149,0.298463
0.446057,0.588337,0.607535,0.696760,0.300611
0.449900,0.589660,0.609874,0.692371,0.302759
0.453743,0.590983,0.612214,0.687982,0.304907
0.457586,0.592306,0.614553,0.683593,0.307055
0.461429,0.593629,0.616892,0.679204,0.309203
0.465273,0.594952,0.619232,0.674815,0.311351
0.469116,0.596274,0.621571,0.670426,0.313500
0.472959,0.597597,0.623910,0.666036,0.315648
0.476802,0.598920,0.626250,0.661647,0.317796
0.480645,0.600243,0.628589,0.657258,0.319944
0.484488,0.601566,0.630929,0.652869,0.322092
0.488331,0.602889,0.633268,0.648480,0.324240
0.492174,0.604212,0.635607,0.644091,0.326388
0.496017,0.605535,0.637947,0.639702,0.328536
0.499860,0.606858,0.640286,0.635313,0.330684
0.503703,0.608181,0.642625,0.630923,0.332832
0.507546,0.609503,0.644965,0.626534,0.334980
0.511390,0.610826,0.647304,0.622145,0.337128
0.515233,0.612149,0.649643,0.617756,0.339276
0.519076,0.613472,0.651983,0.613367,0.341425
0.522919,0.614795,0.654322,0.608978,0.343573
0.526762,0.616118,0.656662,0.604589,0.345721
0.530605,0.617441,0.659001,0.600200,0.347869
0.534448,0.618764,0.661340,0.595810,0.350017
0.538291,0.620087,0.663680,0.591421,0.352165
0.542134,0.621410,0.666019,0.587032,0.354313
0.545977,0.622732,0.668358,0.582643,0.356461
0.549820,0.624055,0.670698,0.578254,0.358609
0.553664,0.625378,0.673037,0.573865,0.360757
0.557507,0.626701,0.675376,0.569476,0.362905
0.561350,0.628024,0.677716,0.565087,0.365053
0.565193,0.629347,0.680055,0.560697,0.367201
0.569036,0.630670,0.682395,0.556308,0.369350
0.572879,0.631993,0.684734,0.551919,0.371498
0.576722,0.633316,0.687073,0.547530,0.373646
0.580565,0.634639,0.689413,0.543141,0.375794
0.584408,0.635961,0.691752,0.538752,0.377942
0.588251,0.637284,0.694091,0.534363,0.380090
0.592094,0.638607,0.696431,0.529974,0.382238
0.595937,0.639930,0.698770,0.525584,0.384386
0.599781,0.641253,0.701109,0.521195,0.386534
0.603624,0.642576,0.703449,0.516806,0.388682
0.607467,0.643899,0.705788,0.512417,0.390830
0.611310,0.645222,0.708128,0.508028,0.392978
0.615011,0.646464,0.710370,0.503776,0.395101
0.618277,0.647458,0.712315,0.499948,0.397147
0.620970,0.648126,0.713868,0.496677,0.399092
0.623090,0.648469,0.715030,0.493961,0.400935
0.624638,0.648485,0.715801,0.491802,0.402676
0.625614,0.648176,0.716181,0.490199,0.404317
0.626017,0.647541,0.716170,0.489151,0.405856
0.625848,0.646579,0.715767,0.488660,0.407293
0.625106,0.645293,0.714974,0.488726,0.408630
0.623792,0.643680,0.713789,0.489347,0.409865
0.621906,0.641741,0.712212,0.490524,0.410998
0.619447,0.639477,0.710245,0.492258,0.412031
0.616416,0.636887,0.707887,0.494547,0.412962
0.612812,0.633971,0.705137,0.497393,0.413791
0.608636,0.630729,0.701996,0.500795,0.414519
0.603887,0.627161,0.698464,0.504753,0.415146
0.598567,0.623267,0.694541,0.509268,0.415672
0.592810,0.619126,0.690320,0.514205,0.416120
0.586912,0.614903,0.686003,0.519280,0.416543
0.581013,0.610681,0.681685,0.524356,0.416966
0.575114,0.606458,0.677367,0.529431,0.417390
0.569216,0.602236,0.673049,0.534507,0.417813
0.563317,0.598013,0.668731,0.539582,0.418236
0.557419,0.593791,0.664413,0.544657,0.418659
0.551520,0.589569,0.660095,0.549733,0.419082
0.545622,0.585346,0.655777,0.554808,0.419506
0.539723,0.581124,0.651459,0.559884,0.419929
0.533824,0.576901,0.647141,0.564959,0.420352
0.527926,0.572679,0.642823,0.570035,0.420775
0.522027,0.568456,0.638505,0.575110,0.421199
0.516129,0.564234,0.634187,0.580186,0.421622
0.510230,0.560011,0.629869,0.585261,0.422045
0.504331,0.555789,0.625551,0.590337,0.422468
0.498433,0.551566,0.621234,0.595412,0.422891
0.492534,0.547344,0.616916,0.600487,0.423315
0.486636,0.543122,0.612598,0.605563,0.423738
0.480737,0.538899,0.608280,0.610638,0.424161
0.474838,0.534677,0.603962,0.615714,0.424584
0.468940,0.530454,0.599644,0.620789,0.425007
0.463041,0.526232,0.595326,0.625865,0.425431
0.457143,0.522009,0.591008,0.630940,0.425854
0.451244,0.517787,0.586690,0.636016,0.426277
0.445345,0.513564,0.582372,0.641091,0.426700
0.439447,0.509342,0.578054,0.646166,0.427124
0.433548,0.505119,0.573736,0.651242,0.427547
0.427650,0.500897,0.569418,0.656317,0.427970
0.421751,0.496675,0.565100,0.661393,0.428393
0.415852,0.492452,0.560782,0.666468,0.428816
0.409954,0.488230,0.556465,0.671544,0.429240
0.404055,0.484007,0.552147,0.676619,0.429663
0.398157,0.479785,0.547829,0.681695,0.430086
0.392258,0.475562,0.543511,0.686770,0.430509
0.386359,0.471340,0.539193,0.691846,0.430932
0.380461,0.467117,0.534875,0.696921,0.431356
0.374562,0.462895,0.530557,0.701996,0.431779
0.368664,0.458672,0.526239,0.707072,0.432202
