density,loudness,brightness,roughness,speed
0.589289,0.582682,0.400240,0.387611,0.770167
0.591323,0.582691,0.401402,0.391219,0.768703
0.593583,0.582702,0.402693,0.395229,0.767075
0.596070,0.582713,0.404114,0.399639,0.765286
0.598782,0.582725,0.405663,0.404451,0.763333
0.601720,0.582738,0.407342,0.409663,0.761218
0.604884,0.582752,0.409149,0.415276,0.758940
0.608275,0.582768,0.411086,0.421291,0.756499
0.611891,0.582784,0.413152,0.427706,0.753896
0.615734,0.582801,0.415347,0.434522,0.751130
0.619576,0.582818,0.417542,0.441339,0.748364
0.623418,0.582836,0.419737,0.448155,0.745598
0.627261,0.582853,0.421932,0.454971,0.742832
0.631103,0.582870,0.424127,0.461787,0.740066
0.634946,0.582887,0.426322,0.468604,0.737300
0.638788,0.582905,0.428518,0.475420,0.734534
0.642630,0.582922,0.430713,0.482236,0.731768
0.646473,0.582939,0.432908,0.489052,0.729002
0.650315,0.582956,0.435103,0.495869,0.726236
0.654158,0.582974,0.437298,0.502685,0.723470
0.658000,0.582991,0.439493,0.509501,0.720704
0.661843,0.583008,0.441688,0.516317,0.717938
0.665685,0.583026,0.443883,0.523134,0.715172
0.669527,0.583043,0.446078,0.529950,0.712406
0.673370,0.583060,0.448273,0.536766,0.709639
0.677212,0.583077,0.450468,0.543582,0.706873
0.681055,0.583095,0.452663,0.550398,0.704107
0.684897,0.583112,0.454858,0.557215,0.701341
0.688739,0.583129,0.457053,0.564031,0.698575
0.692582,0.583146,0.459248,0.570847,0.695809
0.696424,0.583164,0.461443,0.577663,0.693043
0.700267,0.583181,0.463638,0.584480,0.690277
0.704109,0.583198,0.465833,0.591296,0.687511
0.707951,0.583215,0.468028,0.598112,0.684745
0.711794,0.583233,0.470224,0.604928,0.681979
0.715636,0.583250,0.472419,0.611745,0.679213
0.719479,0.583267,0.474614,0.618561,0.676447
0.723321,0.583285,0.476809,0.625377,0.673681
0.727163,0.583302,0.479004,0.632193,0.670915
0.731006,0.583319,0.481199,0.639010,0.668149
0.734848,0.583336,0.483394,0.645826,0.665383
0.738691,0.583354,0.485589,0.652642,0.662617
0.742533,0.583371,0.487784,0.659458,0.659851
0.746376,0.583388,0.489979,0.666275,0.657085
0.750218,0.583405,0.492174,0.673091,0.654319
0.754060,0.583423,0.494369,0.679907,0.651553
0.757903,0.583440,0.496564,0.686723,0.648787
0.761745,0.583457,0.498759,0.693540,0.646021
0.765588,0.583474,0.500954,0.700356,0.643255
0.769430,0.583492,0.503149,0.707172,0.640489
0.773272,0.583509,0.505344,0.713988,0.637723
0.777115,0.583526,0.507539,0.720805,0.634957
0.780957,0.583544,0.509734,0.727621,0.632190
0.784800,0.583561,0.511930,0.734437,0.629424
0.788642,0.583578,0.514125,0.741253,0.626658
0.792484,0.583595,0.516320,0.748070,0.623892
0.796327,0.583613,0.518515,0.754886,0.621126
0.800169,0.583630,0.520710,0.761702,0.618360
0.804012,0.583647,0.522905,0.768518,0.615594
0.807854,0.583664,0.525100,0.775335,0.612828
0.811696,0.583682,0.527295,0.782151,0.610062
0.815539,0.583699,0.529490,0.788967,0.607296
0.819381,0.583716,0.531685,0.795783,0.604530
0.823224,0.583733,0.533880,0.802600,0.601764
0.827066,0.583751,0.536075,0.809416,0.598998
0.830909,0.583768,0.538270,0.816232,0.596232
0.834751,0.583785,0.540465,0.823048,0.593466
0.838593,0.583803,0.542660,0.829864,0.590700
0.842436,0.583820,0.544855,0.836681,0.587934
0.846278,0.583837,0.547050,0.843497,0.585168
0.849553,0.583728,0.549235,0.849546,0.582276
0.852179,0.583473,0.551408,0.854719,0.579240
0.854156,0.583074,0.553570,0.859014,0.576060
0.855485,0.582529,0.555719,0.862434,0.572736
0.856165,0.581840,0.557857,0.864976,0.569268
0.856196,0.581006,0.559983,0.866642,0.565656
0.855579,0.580027,0.562098,0.867431,0.561900
0.854312,0.578903,0.564201,0.867344,0.558000
0.852397,0.577635,0.566292,0.866380,0.553956
0.849834,0.576221,0.568371,0.864539,0.549767
0.846621,0.574662,0.570439,0.861821,0.545435
0.842760,0.572959,0.572495,0.858227,0.540959
0.838250,0.571110,0.574539,0.853756,0.536339
0.833092,0.569117,0.576571,0.848409,0.531575
0.827285,0.566979,0.578592,0.842185,0.526667
0.820829,0.564695,0.580601,0.835084,0.521615
0.813724,0.562267,0.582598,0.827107,0.516419
0.806538,0.559821,0.584594,0.819020,0.511205
0.799352,0.557375,0.586590,0.810933,0.505991
0.792167,0.554929,0.588586,0.802846,0.500777
0.784981,0.552482,0.590582,0.794759,0.495563
0.777795,0.550036,0.592578,0.786672,0.490349
0.770609,0.547590,0.594573,0.778585,0.485135
0.763424,0.545144,0.596569,0.770498,0.479921
0.756238,0.542698,0.598565,0.762411,0.474707
0.749052,0.540251,0.600561,0.754324,0.469493
0.741866,0.537805,0.602557,0.746237,0.464279
0.734680,0.535359,0.604553,0.738150,0.459065
0.727495,0.532913,0.606548,0.730063,0.453851
0.720309,0.530467,0.608544,0.721976,0.448637
0.713123,0.528020,0.610540,0.713889,0.443423
0.705937,0.525574,0.612536,0.705802,0.438209
0.698752,0.523128,0.614532,0.697715,0.432995
0.691566,0.520682,0.616528,0.689627,0.427781
0.684380,0.518236,0.618524,0.681540,0.422567
0.677194,0.515789,0.620519,0.673453,0.417352
0.670009,0.513343,0.622515,0.665366,0.412138
0.662823,0.510897,0.624511,0.657279,0.406924
0.655637,0.508451,0.626507,0.649192,0.401710
0.648451,0.506004,0.628503,0.641105,0.396496
0.641265,0.503558,0.630499,0.633018,0.391282
0.634080,0.501112,0.632494,0.624931,0.386068
0.626894,0.498666,0.634490,0.616844,0.380854
0.619708,0.496220,0.636486,0.608757,0.375640
0.612522,0.493773,0.638482,0.600670,0.370426
0.605337,0.491327,0.640478,0.592583,0.365212
0.598151,0.488881,0.642474,0.584496,0.359998
0.590965,0.486435,0.644469,0.576409,0.354784
0.583779,0.483989,0.646465,0.568322,0.349570
0.576593,0.481542,0.648461,0.560235,0.344356
0.569408,0.479096,0.650457,0.552148,0.339142
0.562222,0.476650,0.652453,0.544061,0.333928
0.555036,0.474204,0.654449,0.535974,0.328714
0.547850,0.471758,0.656445,0.527887,0.323500
0.540665,0.469311,0.658440,0.519800,0.318286
0.533479,0.466865,0.660436,0.511713,0.313072
0.526293,0.464419,0.662432,0.503626,0.307858
0.519107,0.461973,0.664428,0.495539,0.302644
0.511921,0.459527,0.666424,0.487452,0.297430
0.504736,0.457080,0.668420,0.479365,0.292216
0.497550,0.454634,0.670415,0.471278,0.287001
0.490364,0.452188,0.672411,0.463191,0.281787
0.483178,0.449742,0.674407,0.455104,0.276573
0.475993,0.447295,0.676403,0.447017,0.271359
0.468807,0.444849,0.678399,0.438930,0.266145
0.461621,0.442403,0.680395,0.430843,0.260931
0.454435,0.439957,0.682391,0.422756,0.255717
0.447249,0.437511,0.684386,0.414669,0.250503
0.440064,0.435064,0.686382,0.406582,0.245289
0.432878,0.432618,0.688378,0.398495,0.240075
0.425692,0.430172,0.690374,0.390408,0.234861
0.418506,0.427726,0.692370,0.382321,0.229647
0.411321,0.425280,0.694366,0.374234,0.224433
0.404135,0.422833,0.696361,0.366147,0.219219
0.396949,0.420387,0.698357,0.358060,0.214005
0.389763,0.417941,0.700353,0.349973,0.208791
0.382578,0.415495,0.702349,0.341886,0.203577
0.375816,0.413169,0.704223,0.334151,0.198969
0.369619,0.411004,0.705934,0.326884,0.195169
0.363988,0.408999,0.707482,0.320086,0.192177
0.358921,0.407154,0.708867,0.313758,0.189993
0.354421,0.405470,0.710089,0.307898,0.188617
0.350485,0.403947,0.711149,0.302507,0.188048
0.347114,0.402584,0.712045,0.297585,0.188288
0.344309,0.401381,0.712779,0.293131,0.189336
0.342069,0.400339,0.713350,0.289147,0.191192
0.340394,0.399457,0.713758,0.285631,0.193856
0.339285,0.398736,0.714003,0.282585,0.197328
0.338740,0.398175,0.714086,0.280007,0.201608
0.338761,0.397775,0.714005,0.277898,0.206696
0.339347,0.397535,0.713762,0.276258,0.212591
0.340498,0.397456,0.713356,0.275086,0.219295
0.342215,0.397537,0.712787,0.274384,0.226807
0.344497,0.397779,0.712055,0.274151,0.235127
0.346920,0.398061,0.711283,0.274034,0.243649
0.349343,0.398342,0.710510,0.273918,0.252170
0.351766,0.398624,0.709738,0.273802,0.260692
0.354189,0.398906,0.708966,0.273685,0.269214
0.356612,0.399187,0.708193,0.273569,0.277736
0.359035,0.399469,0.707421,0.273453,0.286258
0.361458,0.399751,0.706648,0.273337,0.294779
0.363881,0.400033,0.705876,0.273220,0.303301
0.366304,0.400314,0.705103,0.273104,0.311823
0.368727,0.400596,0.704331,0.272988,0.320345
0.371151,0.400878,0.703558,0.272871,0.328867
0.373574,0.401160,0.702786,0.272755,0.337388
0.375997,0.401441,0.702013,0.272639,0.345910
0.378420,0.401723,0.701241,0.272523,0.354432
0.380843,0.402005,0.700468,0.272406,0.362954
0.383266,0.402287,0.699696,0.272290,0.371476
0.385689,0.402568,0.698923,0.272174,0.379997
0.388112,0.402850,0.698151,0.272057,0.388519
0.390535,0.403132,0.697378,0.271941,0.397041
0.392958,0.403414,0.696606,0.271825,0.405563
0.395381,0.403695,0.695833,0.271709,0.414085
0.397804,0.403977,0.695061,0.271592,0.422606
0.400227,0.404259,0.694288,0.271476,0.431128
0.402650,0.404541,0.693516,0.271360,0.439650
0.405074,0.404822,0.692743,0.271243,0.448172
0.407497,0.405104,0.691971,0.271127,0.456693
0.409920,0.405386,0.691198,0.271011,0.465215
0.412343,0.405667,0.690426,0.270895,0.473737
0.414766,0.405949,0.689653,0.270778,0.482259
0.417189,0.406231,0.688881,0.270662,0.490781
0.419612,0.406513,0.688108,0.270546,0.499302
0.422035,0.406794,0.687336,0.270429,0.507824
0.424458,0.407076,0.686564,0.270313,0.516346
0.426881,0.407358,0.685791,0.270197,0.524868
0.429304,0.407640,0.685019,0.270081,0.533390
0.431727,0.407921,0.684246,0.269964,0.541911
0.434150,0.408203,0.683474,0.269848,0.550433
0.436573,0.408485,0.682701,0.269732,0.558955
0.438997,0.408767,0.681929,0.269615,0.567477
0.441420,0.409048,0.681156,0.269499,0.575999
0.443843,0.409330,0.680384,0.269383,0.584520
0.446266,0.409612,0.679611,0.269267,0.593042
0.448689,0.409894,0.678839,0.269150,0.601564
0.451112,0.410175,0.678066,0.269034,0.610086
0.453535,0.410457,0.677294,0.268918,0.618608
0.455958,0.410739,0.676521,0.268801,0.627129
0.458381,0.411021,0.675749,0.268685,0.635651
0.460804,0.411302,0.674976,0.268569,0.644173
0.463227,0.411584,0.674204,0.268453,0.652695
0.465650,0.411866,0.673431,0.268336,0.661217
0.468073,0.412148,0.672659,0.268220,0.669738
0.470496,0.412429,0.671886,0.268104,0.678260
0.472920,0.412711,0.671114,0.267987,0.686782
0.475343,0.412993,0.670341,0.267871,0.695304
0.477766,0.413274,0.669569,0.267755,0.703826
0.480189,0.413556,0.668796,0.267639,0.712347
0.482612,0.413838,0.668024,0.267522,0.720869
0.485035,0.414120,0.667251,0.267406,0.729391
0.487458,0.414401,0.666479,0.267290,0.737913
0.489881,0.414683,0.665706,0.267173,0.746435
0.492170,0.414935,0.665110,0.267292,0.754693
0.494243,0.415141,0.664796,0.267785,0.762531
0.496101,0.415299,0.664763,0.268653,0.769947
0.497744,0.415410,0.665012,0.269896,0.776943
0.499171,0.415474,0.665543,0.271514,0.783517
0.500384,0.415491,0.666356,0.273508,0.789671
0.501381,0.415461,0.667451,0.275876,0.795403
0.502163,0.415384,0.668828,0.278620,0.800714
0.502730,0.415259,0.670486,0.281738,0.805605
0.503081,0.415088,0.672426,0.285232,0.810074
0.503217,0.414870,0.674649,0.289100,0.814122
0.503138,0.414604,0.677153,0.293344,0.817749
0.502844,0.414292,0.679939,0.297962,0.820955
0.502335,0.413932,0.683006,0.302956,0.823740
0.501610,0.413526,0.686356,0.308325,0.826104
0.500670,0.413072,0.689987,0.314069,0.828047
0.499515,0.412571,0.693900,0.320187,0.829569
0.498279,0.412052,0.697919,0.326447,0.830933
0.497043,0.411534,0.701938,0.332706,0.832297
0.495807,0.411016,0.705957,0.338966,0.833661
0.494572,0.410497,0.709976,0.345225,0.835025
0.493336,0.409979,0.713995,0.351485,0.836389
0.492100,0.409460,0.718014,0.357744,0.837753
0.490864,0.408942,0.722033,0.364004,0.839117
0.489628,0.408423,0.726052,0.370263,0.840481
0.488392,0.407905,0.730071,0.376522,0.841845
0.487156,0.407386,0.734090,0.382782,0.843210
0.485921,0.406868,0.738109,0.389041,0.844574
0.484685,0.406349,0.742128,0.395301,0.845938
0.483449,0.405831,0.746147,0.401560,0.847302
0.482213,0.405312,0.750166,0.407820,0.848666
0.480977,0.404794,0.754185,0.414079,0.850030
0.479741,0.404275,0.758204,0.420339,0.851394
0.478505,0.403757,0.762223,0.426598,0.852758
0.477269,0.403239,0.766242,0.432858,0.854122
0.476034,0.402720,0.770261,0.439117,0.855486
0.474798,0.402202,0.774280,0.445376,0.856850
0.473562,0.401683,0.778299,0.451636,0.858214
0.472326,0.401165,0.782318,0.457895,0.859578
0.471090,0.400646,0.786337,0.464155,0.860942
0.469854,0.400128,0.790355,0.470414,0.862306
0.468618,0.399609,0.794374,0.476674,0.863670
0.467383,0.399091,0.798393,0.482933,0.865034
0.466147,0.398572,0.802412,0.489193,0.866398
0.464911,0.398054,0.806431,0.495452,0.867762
0.463675,0.397535,0.810450,0.501712,0.869126
0.462439,0.397017,0.814469,0.507971,0.870490
0.461203,0.396499,0.818488,0.514230,0.871854
0.459967,0.395980,0.822507,0.520490,0.873218
0.458732,0.395462,0.826526,0.526749,0.874582
0.457496,0.394943,0.830545,0.533009,0.875946
0.456260,0.394425,0.834564,0.539268,0.877310
0.455024,0.393906,0.838583,0.545528,0.878674
0.453788,0.393388,0.842602,0.551787,0.880038
0.452552,0.392869,0.846621,0.558047,0.881402
0.451316,0.392351,0.850640,0.564306,0.882766
0.450081,0.391832,0.854659,0.570566,0.884130
0.448845,0.391314,0.858678,0.576825,0.885494
0.447609,0.390795,0.862697,0.583085,0.886858
0.446373,0.390277,0.866716,0.589344,0.888222
0.445137,0.389758,0.870735,0.595603,0.889586
0.443901,0.389240,0.874754,0.601863,0.890950
0.442665,0.388722,0.878773,0.608122,0.892314
0.441430,0.388203,0.882792,0.614382,0.893678
0.440194,0.387685,0.886811,0.620641,0.895042
0.438958,0.387166,0.890829,0.626901,0.896406
0.437722,0.386648,0.894848,0.633160,0.897770
0.436486,0.386129,0.898867,0.639420,0.899134
0.435250,0.385611,0.902886,0.645679,0.900498
0.434014,0.385092,0.906905,0.651939,0.901862
0.432779,0.384574,0.910924,0.658198,0.903226
0.431543,0.384055,0.914943,0.664457,0.904590
0.430307,0.383537,0.918962,0.670717,0.905954
0.429071,0.383018,0.922981,0.676976,0.907318
0.427835,0.382500,0.927000,0.683236,0.908683
0.426599,0.381981,0.931019,0.689495,0.910047
0.425363,0.381463,0.935038,0.695755,0.911411
0.424319,0.381079,0.938884,0.701793,0.912443
0.423656,0.380964,0.942383,0.707387,0.912811
0.423375,0.381119,0.945535,0.712538,0.912515
0.423477,0.381543,0.948341,0.717246,0.911556
0.423960,0.382236,0.950801,0.721510,0.909932
0.424826,0.383198,0.952913,0.725331,0.907645
0.426074,0.384429,0.954679,0.728708,0.904694
0.427703,0.385930,0.956099,0.731642,0.901079
0.429715,0.387700,0.957172,0.734133,0.896800
0.432109,0.389738,0.957898,0.736180,0.891857
0.434885,0.392047,0.958278,0.737784,0.886250
0.438043,0.394624,0.958311,0.738945,0.879980
0.441584,0.397471,0.957998,0.739662,0.873045
0.445506,0.400586,0.957338,0.739936,0.865447
0.449810,0.403971,0.956332,0.739766,0.857185
0.454497,0.407626,0.954978,0.739153,0.848259
0.459566,0.411549,0.953279,0.738097,0.838669
0.464825,0.415607,0.951406,0.736818,0.828747
0.470085,0.419665,0.949533,0.735540,0.818825
0.475345,0.423723,0.947660,0.734262,0.808903
0.480604,0.427781,0.945787,0.732984,0.798981
0.485864,0.431839,0.943914,0.731706,0.789059
0.491124,0.435897,0.942041,0.730428,0.779137
0.496383,0.439955,0.940168,0.729150,0.769216
0.501643,0.444013,0.938295,0.727872,0.759294
0.506902,0.448071,0.936422,0.726594,0.749372
0.512162,0.452129,0.934549,0.725316,0.739450
0.517422,0.456187,0.932676,0.724038,0.729528
0.522681,0.460245,0.930803,0.722760,0.719606
0.527941,0.464303,0.928930,0.721482,0.709684
0.533201,0.468361,0.927057,0.720204,0.699762
0.538460,0.472419,0.925184,0.718926,0.689841
0.543720,0.476477,0.923311,0.717647,0.679919
0.548980,0.480535,0.921438,0.716369,0.669997
0.554239,0.484593,0.919565,0.715091,0.660075
0.559499,0.488651,0.917692,0.713813,0.650153
0.564759,0.492709,0.915819,0.712535,0.640231
0.570018,0.496767,0.913946,0.711257,0.630309
0.575278,0.500825,0.912073,0.709979,0.620387
0.580538,0.504883,0.910200,0.708701,0.610465
0.585797,0.508941,0.908327,0.707423,0.600544
0.591057,0.512999,0.906454,0.706145,0.590622
0.596316,0.517057,0.904581,0.704867,0.580700
0.601576,0.521115,0.902708,0.703589,0.570778
0.606836,0.525173,0.900835,0.702311,0.560856
0.612095,0.529231,0.898962,0.701033,0.550934
0.617355,0.533289,0.897089,0.699754,0.541012
0.622615,0.537347,0.895216,0.698476,0.531090
0.627874,0.541405,0.893343,0.697198,0.521169
0.633134,0.545463,0.891470,0.695920,0.511247
0.638394,0.549521,0.889597,0.694642,0.501325
0.643653,0.553579,0.887724,0.693364,0.491403
0.648913,0.557637,0.885851,0.692086,0.481481
0.654173,0.561695,0.883978,0.690808,0.471559
0.659432,0.565753,0.882105,0.689530,0.461637
0.664692,0.569811,0.880232,0.688252,0.451715
0.669952,0.573869,0.878359,0.686974,0.441793
0.675211,0.577927,0.876486,0.685696,0.431872
0.680471,0.581985,0.874613,0.684418,0.421950
0.685731,0.586043,0.872740,0.683140,0.412028
0.690990,0.590101,0.870867,0.681862,0.402106
0.696250,0.594159,0.868994,0.680583,0.392184
0.701509,0.598217,0.867121,0.679305,0.382262
0.706769,0.602275,0.865248,0.678027,0.372340
0.712029,0.606333,0.863375,0.676749,0.362418
0.717288,0.610391,0.861502,0.675471,0.352497
0.722548,0.614449,0.859629,0.674193,0.342575
0.727808,0.618507,0.857756,0.672915,0.332653
0.733067,0.622565,0.855883,0.671637,0.322731
0.738327,0.626623,0.854010,0.670359,0.312809
0.743587,0.630681,0.852137,0.669081,0.302887
0.748846,0.634739,0.850264,0.667803,0.292965
0.754106,0.638797,0.848391,0.666525,0.283043
0.759366,0.642855,0.846518,0.665247,0.273121
0.764625,0.646913,0.844645,0.663969,0.263200
0.769885,0.650970,0.842772,0.662690,0.253278
0.775145,0.655028,0.840899,0.661412,0.243356
0.780256,0.658973,0.838909,0.660113,0.233808
0.784971,0.662614,0.836609,0.658758,0.225258
0.789290,0.665953,0.833999,0.657346,0.217706
0.793214,0.668988,0.831079,0.655879,0.211151
0.796741,0.671721,0.827848,0.654355,0.205595
0.799872,0.674151,0.824306,0.652775,0.201036
0.802608,0.676277,0.820455,0.651139,0.197474
0.804947,0.678101,0.816293,0.649446,0.194911
0.806891,0.679622,0.811820,0.647698,0.193345
0.808438,0.680840,0.807038,0.645893,0.192777
0.809590,0.681755,0.801944,0.644032,0.193207
0.810346,0.682367,0.796541,0.642115,0.194634
0.810706,0.682676,0.790827,0.640142,0.197059
0.810669,0.682682,0.784803,0.638112,0.200482
0.810237,0.682385,0.778468,0.636027,0.204903
0.809409,0.681786,0.771823,0.633885,0.210321
0.808185,0.680883,0.764867,0.631687,0.216737
0.806714,0.679791,0.757718,0.629454,0.223777
0.805242,0.678699,0.750569,0.627221,0.230817
0.803771,0.677607,0.743419,0.624988,0.237857
0.802299,0.676515,0.736270,0.622755,0.244896
0.800828,0.675423,0.729120,0.620522,0.251936
0.799356,0.674331,0.721971,0.618289,0.258976
0.797885,0.673239,0.714821,0.616056,0.266015
0.796413,0.672146,0.707672,0.613823,0.273055
0.794942,0.671054,0.700522,0.611590,0.280095
0.793470,0.669962,0.693373,0.609356,0.287135
0.791999,0.668870,0.686224,0.607123,0.294174
0.790527,0.667778,0.679074,0.604890,0.301214
0.789056,0.666686,0.671925,0.602657,0.308254
0.787584,0.665594,0.664775,0.600424,0.315294
0.786113,0.664502,0.657626,0.598191,0.322333
0.784641,0.663410,0.650476,0.595958,0.329373
0.783170,0.662318,0.643327,0.593725,0.336413
0.781698,0.661226,0.636178,0.591492,0.343453
0.780227,0.660134,0.629028,0.589259,0.350492
0.778755,0.659042,0.621879,0.587026,0.357532
0.777284,0.657950,0.614729,0.584793,0.364572
0.775812,0.656858,0.607580,0.582560,0.371611
0.774341,0.655766,0.600430,0.580327,0.378651
0.772869,0.654674,0.593281,0.578093,0.385691
0.771398,0.653582,0.586132,0.575860,0.392731
0.769926,0.652490,0.578982,0.573627,0.399770
0.768455,0.651398,0.571833,0.571394,0.406810
0.766983,0.650306,0.564683,0.569161,0.413850
0.765512,0.649214,0.557534,0.566928,0.420890
0.764040,0.648122,0.550384,0.564695,0.427929
0.762569,0.647029,0.543235,0.562462,0.434969
0.761097,0.645937,0.536086,0.560229,0.442009
0.759626,0.644845,0.528936,0.557996,0.449049
0.758154,0.643753,0.521787,0.555763,0.456088
0.756683,0.642661,0.514637,0.553530,0.463128
0.755211,0.641569,0.507488,0.551297,0.470168
0.753740,0.640477,0.500338,0.549064,0.477207
0.752268,0.639385,0.493189,0.546831,0.484247
