density,loudness,brightness,roughness,speed
0.219776,0.223536,0.707717,0.689311,0.931663
0.220511,0.225673,0.704984,0.685148,0.931422
0.221327,0.228048,0.701948,0.680522,0.931155
0.222226,0.230660,0.698609,0.675434,0.930860
0.223206,0.233509,0.694965,0.669883,0.930539
0.224268,0.236596,0.691018,0.663870,0.930191
0.225412,0.239920,0.686768,0.657394,0.929816
0.226637,0.243482,0.682214,0.650455,0.929415
0.227944,0.247281,0.677356,0.643054,0.928987
0.229332,0.251317,0.672194,0.635191,0.928532
0.230721,0.255354,0.667033,0.627327,0.928077
0.232110,0.259390,0.661872,0.619463,0.927622
0.233498,0.263427,0.656710,0.611600,0.927167
0.234887,0.267463,0.651549,0.603736,0.926712
0.236275,0.271500,0.646388,0.595872,0.926257
0.237664,0.275536,0.641226,0.588009,0.925802
0.239053,0.279573,0.636065,0.580145,0.925347
0.240441,0.283609,0.630903,0.572281,0.924892
0.241830,0.287646,0.625742,0.564418,0.924436
0.243218,0.291682,0.620581,0.556554,0.923981
0.244607,0.295719,0.615419,0.548690,0.923526
0.245996,0.299755,0.610258,0.540827,0.923071
0.247384,0.303792,0.605097,0.532963,0.922616
0.248773,0.307829,0.599935,0.525099,0.922161
0.250161,0.311865,0.594774,0.517236,0.921706
0.251550,0.315902,0.589612,0.509372,0.921251
0.252939,0.319938,0.584451,0.501508,0.920796
0.254327,0.323975,0.579290,0.493645,0.920341
0.255716,0.328011,0.574128,0.485781,0.919886
0.257104,0.332048,0.568967,0.477917,0.919431
0.258493,0.336084,0.563806,0.470054,0.918976
0.259882,0.340121,0.558644,0.462190,0.918521
0.261270,0.344157,0.553483,0.454326,0.918066
0.262659,0.348194,0.548321,0.446463,0.917611
0.264047,0.352230,0.543160,0.438599,0.917156
0.265436,0.356267,0.537999,0.430736,0.916701
0.266825,0.360303,0.532837,0.422872,0.916246
0.268213,0.364340,0.527676,0.415008,0.915791
0.269602,0.368376,0.522515,0.407145,0.915336
0.270991,0.372413,0.517353,0.399281,0.914881
0.272379,0.376450,0.512192,0.391417,0.914426
0.273768,0.380486,0.507030,0.383554,0.913971
0.275156,0.384523,0.501869,0.375690,0.913516
0.276545,0.388559,0.496708,0.367826,0.913061
0.277934,0.392596,0.491546,0.359963,0.912606
0.279322,0.396632,0.486385,0.352099,0.912151
0.280711,0.400669,0.481224,0.344235,0.911696
0.282099,0.404705,0.476062,0.336372,0.911241
0.283488,0.408742,0.470901,0.328508,0.910786
0.284877,0.412778,0.465739,0.320644,0.910331
0.286265,0.416815,0.460578,0.312781,0.909876
0.287654,0.420851,0.455417,0.304917,0.909421
0.289042,0.424888,0.450255,0.297053,0.908966
0.290431,0.428924,0.445094,0.289190,0.908511
0.291820,0.432961,0.439933,0.281326,0.908056
0.293208,0.436997,0.434771,0.273462,0.907601
0.294597,0.441034,0.429610,0.265599,0.907146
0.295985,0.445070,0.424448,0.257735,0.906691
0.297374,0.449107,0.419287,0.249871,0.906236
0.298763,0.453144,0.414126,0.242008,0.905781
0.300151,0.457180,0.408964,0.234144,0.905326
0.301540,0.461217,0.403803,0.226280,0.904871
0.302928,0.465253,0.398642,0.218417,0.904416
0.304317,0.469290,0.393480,0.210553,0.903961
0.305706,0.473326,0.388319,0.202689,0.903506
0.307094,0.477363,0.383157,0.194826,0.903051
0.308483,0.481399,0.377996,0.186962,0.902596
0.309871,0.485436,0.372835,0.179098,0.902141
0.311260,0.489472,0.367673,0.171235,0.901686
0.312649,0.493509,0.362512,0.163371,0.901231
0.314037,0.497545,0.357351,0.155507,0.900776
0.315580,0.501458,0.352382,0.148032,0.900322
0.317508,0.505061,0.347894,0.141526,0.899870
0.319821,0.508354,0.343886,0.135990,0.899420
0.322520,0.511338,0.340360,0.131423,0.898972
0.325603,0.514012,0.337315,0.127826,0.898526
0.329072,0.516377,0.334751,0.125200,0.898082
0.332926,0.518431,0.332667,0.123542,0.897641
0.337166,0.520176,0.331065,0.122855,0.897201
0.341790,0.521612,0.329943,0.123138,0.896764
0.346800,0.522738,0.329303,0.124390,0.896328
0.352195,0.523554,0.329143,0.126612,0.895895
0.357976,0.524060,0.329464,0.129804,0.895464
0.364141,0.524257,0.330266,0.133965,0.895035
0.370692,0.524144,0.331550,0.139096,0.894608
0.377628,0.523722,0.333314,0.145198,0.894183
0.384949,0.522989,0.335559,0.152268,0.893761
0.392656,0.521948,0.338285,0.160309,0.893340
0.400594,0.520720,0.341299,0.168932,0.892921
0.408531,0.519492,0.344314,0.177554,0.892501
0.416469,0.518265,0.347328,0.186177,0.892082
0.424407,0.517037,0.350343,0.194799,0.891663
0.432344,0.515809,0.353357,0.203422,0.891243
0.440282,0.514582,0.356372,0.212044,0.890824
0.448220,0.513354,0.359386,0.220667,0.890404
0.456158,0.512127,0.362401,0.229289,0.889985
0.464095,0.510899,0.365415,0.237912,0.889566
0.472033,0.509671,0.368430,0.246534,0.889146
0.479971,0.508444,0.371444,0.255157,0.888727
0.487908,0.507216,0.374459,0.263779,0.888308
0.495846,0.505989,0.377473,0.272402,0.887888
0.503784,0.504761,0.380488,0.281024,0.887469
0.511721,0.503533,0.383502,0.289647,0.887050
0.519659,0.502306,0.386517,0.298269,0.886630
0.527597,0.501078,0.389531,0.306892,0.886211
0.535535,0.499851,0.392546,0.315514,0.885791
0.543472,0.498623,0.395560,0.324137,0.885372
0.551410,0.497395,0.398575,0.332759,0.884953
0.559348,0.496168,0.401589,0.341382,0.884533
0.567285,0.494940,0.404604,0.350005,0.884114
0.575223,0.493712,0.407618,0.358627,0.883695
0.583161,0.492485,0.410633,0.367250,0.883275
0.591099,0.491257,0.413647,0.375872,0.882856
0.599036,0.490030,0.416662,0.384495,0.882436
0.606974,0.488802,0.419676,0.393117,0.882017
0.614912,0.487574,0.422691,0.401740,0.881598
0.622849,0.486347,0.425705,0.410362,0.881178
0.630787,0.485119,0.428720,0.418985,0.880759
0.638725,0.483892,0.431735,0.427607,0.880340
0.646662,0.482664,0.434749,0.436230,0.879920
0.654600,0.481436,0.437764,0.444852,0.879501
0.662538,0.480209,0.440778,0.453475,0.879082
0.670476,0.478981,0.443793,0.462097,0.878662
0.678413,0.477754,0.446807,0.470720,0.878243
0.686351,0.476526,0.449822,0.479342,0.877823
0.694289,0.475298,0.452836,0.487965,0.877404
0.702226,0.474071,0.455851,0.496587,0.876985
0.710164,0.472843,0.458865,0.505210,0.876565
0.718102,0.471615,0.461880,0.513832,0.876146
0.726039,0.470388,0.464894,0.522455,0.875727
0.733977,0.469160,0.467909,0.531077,0.875307
0.741915,0.467933,0.470923,0.539700,0.874888
0.749853,0.466705,0.473938,0.548322,0.874469
0.757790,0.465477,0.476952,0.556945,0.874049
0.765728,0.464250,0.479967,0.565567,0.873630
0.773666,0.463022,0.482981,0.574190,0.873210
0.781603,0.461795,0.485996,0.582813,0.872791
0.789541,0.460567,0.489010,0.591435,0.872372
0.797479,0.459339,0.492025,0.600058,0.871952
0.805416,0.458112,0.495039,0.608680,0.871533
0.813354,0.456884,0.498054,0.617303,0.871114
0.821292,0.455656,0.501068,0.625925,0.870694
0.829230,0.454429,0.504083,0.634548,0.870275
0.837167,0.453201,0.507097,0.643170,0.869856
0.845105,0.451974,0.510112,0.651793,0.869436
0.853043,0.450746,0.513126,0.660415,0.869017
0.860980,0.449518,0.516141,0.669038,0.868597
0.868918,0.448291,0.519155,0.677660,0.868178
0.876856,0.447063,0.522170,0.686283,0.867759
0.884794,0.445836,0.525184,0.694905,0.867339
0.892181,0.444653,0.527939,0.703071,0.866674
0.898880,0.443526,0.530369,0.710666,0.865702
0.904891,0.442456,0.532474,0.717689,0.864423
0.910213,0.441441,0.534255,0.724142,0.862836
0.914848,0.440483,0.535711,0.730024,0.860942
0.918794,0.439580,0.536842,0.735335,0.858742
0.922053,0.438734,0.537649,0.740074,0.856234
0.924623,0.437943,0.538130,0.744243,0.853419
0.926505,0.437209,0.538287,0.747841,0.850296
0.927699,0.436531,0.538120,0.750868,0.846867
0.928205,0.435909,0.537627,0.753323,0.843131
0.928022,0.435343,0.536810,0.755208,0.839087
0.927152,0.434833,0.535668,0.756522,0.834736
0.925593,0.434379,0.534202,0.757265,0.830078
0.923346,0.433982,0.532411,0.757437,0.825113
0.920411,0.433640,0.530295,0.757037,0.819841
0.916788,0.433354,0.527854,0.756067,0.814261
0.913028,0.433080,0.525348,0.754983,0.808621
0.909267,0.432805,0.522843,0.753898,0.802980
0.905506,0.432531,0.520337,0.752814,0.797339
0.901745,0.432256,0.517832,0.751730,0.791698
0.897985,0.431982,0.515326,0.750645,0.786057
0.894224,0.431708,0.512820,0.749561,0.780417
0.890463,0.431433,0.510315,0.748477,0.774776
0.886702,0.431159,0.507809,0.747392,0.769135
0.882942,0.430884,0.505303,0.746308,0.763494
0.879181,0.430610,0.502798,0.745223,0.757853
0.875420,0.430335,0.500292,0.744139,0.752213
0.871660,0.430061,0.497787,0.743055,0.746572
0.867899,0.429787,0.495281,0.741970,0.740931
0.864138,0.429512,0.492775,0.740886,0.735290
0.860377,0.429238,0.490270,0.739801,0.729649
0.856617,0.428963,0.487764,0.738717,0.724009
0.852856,0.428689,0.485259,0.737633,0.718368
0.849095,0.428414,0.482753,0.736548,0.712727
0.845335,0.428140,0.480247,0.735464,0.707086
0.841574,0.427866,0.477742,0.734380,0.701445
0.837813,0.427591,0.475236,0.733295,0.695805
0.834052,0.427317,0.472731,0.732211,0.690164
0.830292,0.427042,0.470225,0.731126,0.684523
0.826531,0.426768,0.467719,0.730042,0.678882
0.822770,0.426493,0.465214,0.728958,0.673241
0.819009,0.426219,0.462708,0.727873,0.667600
0.815249,0.425944,0.460202,0.726789,0.661960
0.811488,0.425670,0.457697,0.725704,0.656319
0.807727,0.425396,0.455191,0.724620,0.650678
0.803967,0.425121,0.452686,0.723536,0.645037
0.800206,0.424847,0.450180,0.722451,0.639396
0.796445,0.424572,0.447674,0.721367,0.633756
0.792684,0.424298,0.445169,0.720282,0.628115
0.788924,0.424023,0.442663,0.719198,0.622474
0.785163,0.423749,0.440158,0.718114,0.616833
0.781402,0.423475,0.437652,0.717029,0.611192
0.777641,0.423200,0.435146,0.715945,0.605552
0.773881,0.422926,0.432641,0.714861,0.599911
0.770120,0.422651,0.430135,0.713776,0.594270
0.766359,0.422377,0.427629,0.712692,0.588629
0.762599,0.422102,0.425124,0.711607,0.582988
0.758838,0.421828,0.422618,0.710523,0.577348
0.755077,0.421554,0.420113,0.709439,0.571707
0.751316,0.421279,0.417607,0.708354,0.566066
0.747556,0.421005,0.415101,0.707270,0.560425
0.743795,0.420730,0.412596,0.706185,0.554784
0.740034,0.420456,0.410090,0.705101,0.549144
0.736273,0.420181,0.407585,0.704017,0.543503
0.732513,0.419907,0.405079,0.702932,0.537862
0.728752,0.419633,0.402573,0.701848,0.532221
0.724991,0.419358,0.400068,0.700764,0.526580
0.721231,0.419084,0.397562,0.699679,0.520940
0.717470,0.418809,0.395057,0.698595,0.515299
0.713709,0.418535,0.392551,0.697510,0.509658
0.709948,0.418260,0.390045,0.696426,0.504017
0.706188,0.417986,0.387540,0.695342,0.498376
0.702427,0.417712,0.385034,0.694257,0.492736
0.698666,0.417437,0.382528,0.693173,0.487095
0.694905,0.417163,0.380023,0.692088,0.481454
0.691145,0.416888,0.377517,0.691004,0.475813
0.687384,0.416614,0.375012,0.689920,0.470172
0.683648,0.416337,0.372597,0.688779,0.464650
0.680037,0.416051,0.370634,0.687357,0.459721
0.676552,0.415755,0.369124,0.685653,0.455384
0.673190,0.415449,0.368067,0.683668,0.451640
0.669954,0.415133,0.367462,0.681401,0.448488
0.666843,0.414807,0.367310,0.678853,0.445930
0.663857,0.414471,0.367610,0.676023,0.443964
0.660995,0.414125,0.368363,0.672911,0.442591
0.658259,0.413770,0.369569,0.669519,0.441810
0.655647,0.413404,0.371227,0.665844,0.441622
0.653160,0.413029,0.373338,0.661888,0.442027
0.650799,0.412644,0.375902,0.657651,0.443025
0.648562,0.412248,0.378918,0.653132,0.444616
0.646450,0.411843,0.382386,0.648331,0.446799
0.644463,0.411428,0.386307,0.643249,0.449575
0.642600,0.411003,0.390681,0.637886,0.452943
0.640863,0.410569,0.395508,0.632241,0.456905
0.639226,0.410126,0.400696,0.626371,0.461340
0.637588,0.409683,0.405885,0.620500,0.465776
0.635951,0.409240,0.411073,0.614630,0.470211
0.634314,0.408798,0.416261,0.608760,0.474647
0.632676,0.408355,0.421450,0.602890,0.479082
0.631039,0.407912,0.426638,0.597019,0.483518
0.629402,0.407470,0.431827,0.591149,0.487953
0.627764,0.407027,0.437015,0.585279,0.492389
0.626127,0.406584,0.442204,0.579408,0.496824
0.624489,0.406141,0.447392,0.573538,0.501260
0.622852,0.405699,0.452581,0.567668,0.505696
0.621215,0.405256,0.457769,0.561798,0.510131
0.619577,0.404813,0.462958,0.555927,0.514567
0.617940,0.404371,0.468146,0.550057,0.519002
0.616302,0.403928,0.473334,0.544187,0.523438
0.614665,0.403485,0.478523,0.538317,0.527873
0.613028,0.403042,0.483711,0.532446,0.532309
0.611390,0.402600,0.488900,0.526576,0.536744
0.609753,0.402157,0.494088,0.520706,0.541180
0.608116,0.401714,0.499277,0.514836,0.545615
0.606478,0.401272,0.504465,0.508965,0.550051
0.604841,0.400829,0.509654,0.503095,0.554486
0.603203,0.400386,0.514842,0.497225,0.558922
0.601566,0.399943,0.520031,0.491354,0.563357
0.599929,0.399501,0.525219,0.485484,0.567793
0.598291,0.399058,0.530407,0.479614,0.572229
0.596654,0.398615,0.535596,0.473744,0.576664
0.595017,0.398173,0.540784,0.467873,0.581100
0.593379,0.397730,0.545973,0.462003,0.585535
0.591742,0.397287,0.551161,0.456133,0.589971
0.590104,0.396844,0.556350,0.450263,0.594406
0.588467,0.396402,0.561538,0.444392,0.598842
0.586830,0.395959,0.566727,0.438522,0.603277
0.585192,0.395516,0.571915,0.432652,0.607713
0.583555,0.395074,0.577104,0.426782,0.612148
0.581918,0.394631,0.582292,0.420911,0.616584
0.580280,0.394188,0.587480,0.415041,0.621019
0.578643,0.393745,0.592669,0.409171,0.625455
0.577005,0.393303,0.597857,0.403301,0.629891
0.575368,0.392860,0.603046,0.397430,0.634326
0.573731,0.392417,0.608234,0.391560,0.638762
0.572093,0.391975,0.613423,0.385690,0.643197
0.570456,0.391532,0.618611,0.379819,0.647633
0.568818,0.391089,0.623800,0.373949,0.652068
0.567181,0.390646,0.628988,0.368079,0.656504
0.565544,0.390204,0.634177,0.362209,0.660939
0.563906,0.389761,0.639365,0.356338,0.665375
0.562269,0.389318,0.644554,0.350468,0.669810
0.560632,0.388876,0.649742,0.344598,0.674246
0.558994,0.388433,0.654930,0.338728,0.678681
0.557357,0.387990,0.660119,0.332857,0.683117
0.555719,0.387547,0.665307,0.326987,0.687552
0.554082,0.387105,0.670496,0.321117,0.691988
0.552445,0.386662,0.675684,0.315247,0.696424
0.550807,0.386219,0.680873,0.309376,0.700859
0.549170,0.385777,0.686061,0.303506,0.705295
0.547533,0.385334,0.691250,0.297636,0.709730
0.545895,0.384891,0.696438,0.291766,0.714166
0.544258,0.384448,0.701627,0.285895,0.718601
0.542620,0.384006,0.706815,0.280025,0.723037
0.540983,0.383563,0.712003,0.274155,0.727472
0.539346,0.383120,0.717192,0.268284,0.731908
0.537606,0.382798,0.721934,0.262809,0.735932
0.535696,0.382675,0.725933,0.257992,0.739270
0.533615,0.382753,0.729187,0.253833,0.741923
0.531363,0.383030,0.731698,0.250333,0.743890
0.528941,0.383508,0.733466,0.247491,0.745171
0.526348,0.384186,0.734489,0.245307,0.745766
0.523585,0.385063,0.734769,0.243781,0.745676
0.520650,0.386141,0.734305,0.242914,0.744900
0.517546,0.387419,0.733097,0.242705,0.743438
0.514270,0.388897,0.731146,0.243154,0.741290
0.510825,0.390575,0.728450,0.244262,0.738457
0.507208,0.392454,0.725012,0.246027,0.734938
0.503421,0.394532,0.720829,0.248451,0.730733
0.499463,0.396810,0.715902,0.251534,0.725842
0.495335,0.399289,0.710232,0.255274,0.720266
0.491036,0.401968,0.703818,0.259673,0.714004
0.486566,0.404846,0.696661,0.264731,0.707056
0.482028,0.407805,0.689206,0.270051,0.699833
0.477490,0.410764,0.681751,0.275372,0.692611
0.472953,0.413722,0.674295,0.280692,0.685389
0.468415,0.416681,0.666840,0.286013,0.678167
0.463877,0.419640,0.659385,0.291333,0.670945
0.459339,0.422598,0.651930,0.296654,0.663723
0.454801,0.425557,0.644475,0.301974,0.656500
0.450263,0.428516,0.637020,0.307295,0.649278
0.445726,0.431474,0.629565,0.312615,0.642056
0.441188,0.434433,0.622109,0.317936,0.634834
0.436650,0.437392,0.614654,0.323256,0.627612
0.432112,0.440350,0.607199,0.328577,0.620390
0.427574,0.443309,0.599744,0.333897,0.613167
0.423036,0.446268,0.592289,0.339218,0.605945
0.418498,0.449226,0.584834,0.344538,0.598723
0.413961,0.452185,0.577379,0.349859,0.591501
0.409423,0.455144,0.569924,0.355179,0.584279
0.404885,0.458102,0.562468,0.360500,0.577057
0.400347,0.461061,0.555013,0.365820,0.569834
0.395809,0.464020,0.547558,0.371141,0.562612
0.391271,0.466978,0.540103,0.376461,0.555390
0.386733,0.469937,0.532648,0.381782,0.548168
0.382196,0.472896,0.525193,0.387102,0.540946
0.377658,0.475855,0.517738,0.392423,0.533723
0.373120,0.478813,0.510282,0.397743,0.526501
0.368582,0.481772,0.502827,0.403064,0.519279
0.364044,0.484731,0.495372,0.408384,0.512057
0.359506,0.487689,0.487917,0.413705,0.504835
0.354968,0.490648,0.480462,0.419025,0.497613
0.350431,0.493607,0.473007,0.424346,0.490390
0.345893,0.496565,0.465552,0.429666,0.483168
0.341355,0.499524,0.458097,0.434987,0.475946
0.336817,0.502483,0.450641,0.440307,0.468724
0.332279,0.505441,0.443186,0.445628,0.461502
0.327741,0.508400,0.435731,0.450948,0.454280
0.323204,0.511359,0.428276,0.456269,0.447057
0.318666,0.514317,0.420821,0.461589,0.439835
0.314128,0.517276,0.413366,0.466910,0.432613
0.309590,0.520235,0.405911,0.472230,0.425391
0.305052,0.523193,0.398455,0.477551,0.418169
0.300514,0.526152,0.391000,0.482871,0.410947
0.295976,0.529111,0.383545,0.488192,0.403724
0.291439,0.532069,0.376090,0.493512,0.396502
0.286901,0.535028,0.368635,0.498833,0.389280
0.282363,0.537987,0.361180,0.504153,0.382058
0.277825,0.540946,0.353725,0.509474,0.374836
0.273287,0.543904,0.346269,0.514794,0.367613
0.268749,0.546863,0.338814,0.520115,0.360391
0.264211,0.549822,0.331359,0.525435,0.353169
0.259674,0.552780,0.323904,0.530756,0.345947
0.255136,0.555739,0.316449,0.536076,0.338725
0.250598,0.558698,0.308994,0.541397,0.331503
0.246060,0.561656,0.301539,0.546717,0.324280
0.241522,0.564615,0.294084,0.552038,0.317058
0.236984,0.567574,0.286628,0.557358,0.309836
0.232446,0.570532,0.279173,0.562679,0.302614
0.227909,0.573491,0.271718,0.567999,0.295392
0.223371,0.576450,0.264263,0.573320,0.288170
0.218833,0.579408,0.256808,0.578640,0.280947
0.214295,0.582367,0.249353,0.583961,0.273725
0.209757,0.585326,0.241898,0.589281,0.266503
0.205219,0.588284,0.234442,0.594602,0.259281
0.201036,0.590857,0.227917,0.599539,0.253063
0.197208,0.593042,0.222322,0.604093,0.247850
0.193734,0.594841,0.217657,0.608263,0.243642
0.190615,0.596254,0.213921,0.612050,0.240437
0.187850,0.597280,0.211115,0.615454,0.238238
0.185440,0.597920,0.209240,0.618475,0.237043
0.183385,0.598173,0.208294,0.621112,0.236853
0.181684,0.598040,0.208278,0.623366,0.237667
0.180339,0.597520,0.209192,0.625236,0.239485
0.179347,0.596614,0.211036,0.626723,0.242308
0.178711,0.595321,0.213810,0.627827,0.246136
0.178429,0.593642,0.217514,0.628547,0.250968
0.178502,0.591576,0.222147,0.628884,0.256805
0.178929,0.589124,0.227711,0.628838,0.263646
0.179711,0.586285,0.234204,0.628409,0.271492
0.180848,0.583060,0.241627,0.627596,0.280342
0.182340,0.579448,0.249981,0.626400,0.290197
0.183831,0.575836,0.258334,0.625203,0.300052
0.185323,0.572225,0.266687,0.624007,0.309907
0.186814,0.568613,0.275041,0.622811,0.319762
0.188306,0.565001,0.283394,0.621615,0.329617
0.189797,0.561389,0.291747,0.620418,0.339471
0.191288,0.557778,0.300100,0.619222,0.349326
0.192780,0.554166,0.308454,0.618026,0.359181
0.194271,0.550554,0.316807,0.616830,0.369036
0.195763,0.546942,0.325160,0.615633,0.378891
0.197254,0.543330,0.333513,0.614437,0.388746
0.198746,0.539719,0.341867,0.613241,0.398601
0.200237,0.536107,0.350220,0.612045,0.408455
0.201729,0.532495,0.358573,0.610848,0.418310
0.203220,0.528883,0.366926,0.609652,0.428165
0.204712,0.525272,0.375280,0.608456,0.438020
0.206203,0.521660,0.383633,0.607260,0.447875
0.207694,0.518048,0.391986,0.606063,0.457730
0.209186,0.514436,0.400339,0.604867,0.467585
0.210677,0.510825,0.408693,0.603671,0.477439
0.212169,0.507213,0.417046,0.602475,0.487294
0.213660,0.503601,0.425399,0.601279,0.497149
0.215152,0.499989,0.433752,0.600082,0.507004
0.216643,0.496378,0.442106,0.598886,0.516859
0.218135,0.492766,0.450459,0.597690,0.526714
0.219626,0.489154,0.458812,0.596494,0.536569
0.221118,0.485542,0.467165,0.595297,0.546423
0.222609,0.481931,0.475519,0.594101,0.556278
0.224101,0.478319,0.483872,0.592905,0.566133
0.225592,0.474707,0.492225,0.591709,0.575988
0.227083,0.471095,0.500578,0.590512,0.585843
