density,loudness,brightness,roughness,speed
0.467474,0.529801,0.772711,0.314612,0.833506
0.465739,0.529994,0.772981,0.313478,0.830834
0.463812,0.530208,0.773282,0.312218,0.827865
0.461691,0.530444,0.773612,0.310832,0.824600
0.459379,0.530701,0.773972,0.309321,0.821038
0.456873,0.530979,0.774362,0.307683,0.817180
0.454175,0.531279,0.774783,0.305920,0.813025
0.451285,0.531600,0.775233,0.304030,0.808573
0.448202,0.531943,0.775713,0.302015,0.803825
0.444926,0.532306,0.776224,0.299874,0.798780
0.441649,0.532671,0.776734,0.297731,0.793733
0.438371,0.533035,0.777245,0.295589,0.788685
0.435094,0.533399,0.777755,0.293447,0.783638
0.431817,0.533763,0.778266,0.291305,0.778591
0.428540,0.534127,0.778776,0.289163,0.773544
0.425262,0.534491,0.779287,0.287020,0.768496
0.421985,0.534855,0.779797,0.284878,0.763449
0.418708,0.535219,0.780308,0.282736,0.758402
0.415431,0.535584,0.780818,0.280594,0.753355
0.412153,0.535948,0.781329,0.278452,0.748307
0.408876,0.536312,0.781840,0.276309,0.743260
0.405599,0.536676,0.782350,0.274167,0.738213
0.402322,0.537040,0.782861,0.272025,0.733166
0.399044,0.537404,0.783371,0.269883,0.728119
0.395767,0.537768,0.783882,0.267741,0.723071
0.392490,0.538132,0.784392,0.265598,0.718024
0.389213,0.538497,0.784903,0.263456,0.712977
0.385935,0.538861,0.785413,0.261314,0.707930
0.382658,0.539225,0.785924,0.259172,0.702882
0.379381,0.539589,0.786434,0.257030,0.697835
0.376104,0.539953,0.786945,0.254887,0.692788
0.372826,0.540317,0.787455,0.252745,0.687741
0.369549,0.540681,0.787966,0.250603,0.682693
0.366272,0.541045,0.788477,0.248461,0.677646
0.362995,0.541410,0.788987,0.246319,0.672599
0.359717,0.541774,0.789498,0.244176,0.667552
0.356440,0.542138,0.790008,0.242034,0.662504
0.353163,0.542502,0.790519,0.239892,0.657457
0.349886,0.542866,0.791029,0.237750,0.652410
0.346608,0.543230,0.791540,0.235608,0.647363
0.343331,0.543594,0.792050,0.233465,0.642315
0.340054,0.543958,0.792561,0.231323,0.637268
0.336777,0.544322,0.793071,0.229181,0.632221
0.333499,0.544687,0.793582,0.227039,0.627174
0.330222,0.545051,0.794092,0.224897,0.622127
0.326945,0.545415,0.794603,0.222754,0.617079
0.323668,0.545779,0.795113,0.220612,0.612032
0.320390,0.546143,0.795624,0.218470,0.606985
0.317113,0.546507,0.796135,0.216328,0.601938
0.313836,0.546871,0.796645,0.214186,0.596890
0.310559,0.547235,0.797156,0.212043,0.591843
0.307281,0.547600,0.797666,0.209901,0.586796
0.304004,0.547964,0.798177,0.207759,0.581749
0.300727,0.548328,0.798687,0.205617,0.576701
0.297450,0.548692,0.799198,0.203475,0.571654
0.294172,0.549056,0.799708,0.201333,0.566607
0.290895,0.549420,0.800219,0.199190,0.561560
0.287618,0.549784,0.800729,0.197048,0.556512
0.284341,0.550148,0.801240,0.194906,0.551465
0.281063,0.550513,0.801750,0.192764,0.546418
0.277786,0.550877,0.802261,0.190622,0.541371
0.274509,0.551241,0.802772,0.188479,0.536324
0.271232,0.551605,0.803282,0.186337,0.531276
0.267954,0.551969,0.803793,0.184195,0.526229
0.264677,0.552333,0.804303,0.182053,0.521182
0.261400,0.552697,0.804814,0.179911,0.516135
0.258123,0.553061,0.805324,0.177768,0.511087
0.254845,0.553426,0.805835,0.175626,0.506040
0.251568,0.553790,0.806345,0.173484,0.500993
0.248291,0.554154,0.806856,0.171342,0.495946
0.245120,0.554506,0.807365,0.169225,0.490962
0.242643,0.554778,0.807861,0.167274,0.486396
0.240905,0.554965,0.808345,0.165501,0.482274
0.239904,0.555068,0.808817,0.163903,0.478595
0.239641,0.555086,0.809275,0.162483,0.475359
0.240116,0.555020,0.809721,0.161239,0.472567
0.241328,0.554868,0.810155,0.160172,0.470218
0.243278,0.554632,0.810575,0.159281,0.468312
0.245966,0.554311,0.810983,0.158567,0.466850
0.249392,0.553906,0.811379,0.158029,0.465831
0.253555,0.553416,0.811761,0.157669,0.465256
0.258456,0.552841,0.812131,0.157484,0.465124
0.264095,0.552182,0.812488,0.157477,0.465435
0.270472,0.551437,0.812833,0.157646,0.466190
0.277586,0.550609,0.813164,0.157991,0.467388
0.285438,0.549695,0.813484,0.158514,0.469030
0.294028,0.548697,0.813790,0.159213,0.471115
0.303251,0.547626,0.814086,0.160063,0.473581
0.312528,0.546548,0.814380,0.160926,0.476078
0.321804,0.545471,0.814675,0.161790,0.478576
0.331081,0.544394,0.814969,0.162653,0.481074
0.340358,0.543317,0.815264,0.163516,0.483572
0.349634,0.542240,0.815559,0.164380,0.486069
0.358911,0.541163,0.815853,0.165243,0.488567
0.368188,0.540086,0.816148,0.166106,0.491065
0.377464,0.539008,0.816442,0.166970,0.493563
0.386741,0.537931,0.816737,0.167833,0.496060
0.396018,0.536854,0.817032,0.168696,0.498558
0.405294,0.535777,0.817326,0.169560,0.501056
0.414571,0.534700,0.817621,0.170423,0.503554
0.423848,0.533623,0.817916,0.171286,0.506051
0.433124,0.532546,0.818210,0.172150,0.508549
0.442401,0.531468,0.818505,0.173013,0.511047
0.451677,0.530391,0.818799,0.173876,0.513545
0.460954,0.529314,0.819094,0.174740,0.516042
0.470231,0.528237,0.819389,0.175603,0.518540
0.479507,0.527160,0.819683,0.176466,0.521038
0.488784,0.526083,0.819978,0.177330,0.523536
0.498061,0.525005,0.820272,0.178193,0.526033
0.507337,0.523928,0.820567,0.179056,0.528531
0.516614,0.522851,0.820862,0.179920,0.531029
0.525891,0.521774,0.821156,0.180783,0.533527
0.535167,0.520697,0.821451,0.181646,0.536024
0.544444,0.519620,0.821745,0.182510,0.538522
0.553721,0.518543,0.822040,0.183373,0.541020
0.562997,0.517465,0.822335,0.184236,0.543518
0.572274,0.516388,0.822629,0.185100,0.546015
0.581550,0.515311,0.822924,0.185963,0.548513
0.590827,0.514234,0.823219,0.186826,0.551011
0.600104,0.513157,0.823513,0.187690,0.553509
0.609380,0.512080,0.823808,0.188553,0.556006
0.618657,0.511003,0.824102,0.189416,0.558504
0.627934,0.509925,0.824397,0.190280,0.561002
0.637210,0.508848,0.824692,0.191143,0.563500
0.646487,0.507771,0.824986,0.192006,0.565997
0.655764,0.506694,0.825281,0.192870,0.568495
0.665040,0.505617,0.825575,0.193733,0.570993
0.674317,0.504540,0.825870,0.194596,0.573491
0.683594,0.503462,0.826165,0.195460,0.575988
0.692870,0.502385,0.826459,0.196323,0.578486
0.702147,0.501308,0.826754,0.197186,0.580984
0.711424,0.500231,0.827049,0.198050,0.583482
0.720700,0.499154,0.827343,0.198913,0.585979
0.729977,0.498077,0.827638,0.199776,0.588477
0.739253,0.497000,0.827932,0.200640,0.590975
0.748530,0.495922,0.828227,0.201503,0.593473
0.757807,0.494845,0.828522,0.202366,0.595970
0.767083,0.493768,0.828816,0.203230,0.598468
0.776360,0.492691,0.829111,0.204093,0.600966
0.785637,0.491614,0.829405,0.204956,0.603464
0.794913,0.490537,0.829700,0.205820,0.605961
0.804190,0.489459,0.829995,0.206683,0.608459
0.813467,0.488382,0.830289,0.207546,0.610957
0.822743,0.487305,0.830584,0.208410,0.613455
0.832020,0.486228,0.830878,0.209273,0.615952
0.841297,0.485151,0.831173,0.210136,0.618450
0.850573,0.484074,0.831468,0.211000,0.620948
0.859850,0.482997,0.831762,0.211863,0.623446
0.868841,0.481924,0.831951,0.212692,0.625944
0.876859,0.480866,0.831775,0.213401,0.628442
0.883793,0.479825,0.831196,0.213978,0.630942
0.889644,0.478801,0.830213,0.214422,0.633442
0.894413,0.477793,0.828826,0.214734,0.635943
0.898098,0.476803,0.827034,0.214913,0.638445
0.900700,0.475828,0.824839,0.214960,0.640947
0.902219,0.474871,0.822239,0.214874,0.643451
0.902655,0.473930,0.819235,0.214656,0.645955
0.902008,0.473006,0.815828,0.214306,0.648460
0.900278,0.472099,0.812016,0.213823,0.650965
0.897464,0.471209,0.807800,0.213207,0.653472
0.893568,0.470335,0.803180,0.212459,0.655979
0.888588,0.469478,0.798156,0.211578,0.658487
0.882526,0.468638,0.792728,0.210565,0.660996
0.875380,0.467814,0.786896,0.209420,0.663505
0.867152,0.467007,0.780660,0.208142,0.666015
0.858119,0.466213,0.774124,0.206765,0.668526
0.848965,0.465420,0.767542,0.205374,0.671037
0.839812,0.464628,0.760961,0.203983,0.673548
0.830658,0.463835,0.754380,0.202592,0.676059
0.821504,0.463042,0.747798,0.201200,0.678570
0.812350,0.462250,0.741217,0.199809,0.681081
0.803196,0.461457,0.734636,0.198418,0.683592
0.794042,0.460665,0.728054,0.197027,0.686103
0.784888,0.459872,0.721473,0.195635,0.688614
0.775734,0.459079,0.714892,0.194244,0.691125
0.766581,0.458287,0.708310,0.192853,0.693636
0.757427,0.457494,0.701729,0.191462,0.696147
0.748273,0.456702,0.695147,0.190071,0.698658
0.739119,0.455909,0.688566,0.188679,0.701169
0.729965,0.455117,0.681985,0.187288,0.703680
0.720811,0.454324,0.675403,0.185897,0.706191
0.711657,0.453531,0.668822,0.184506,0.708702
0.702503,0.452739,0.662241,0.183114,0.711213
0.693350,0.451946,0.655659,0.181723,0.713724
0.684196,0.451154,0.649078,0.180332,0.716235
0.675042,0.450361,0.642497,0.178941,0.718746
0.665888,0.449568,0.635915,0.177550,0.721257
0.656734,0.448776,0.629334,0.176158,0.723768
0.647580,0.447983,0.622753,0.174767,0.726279
0.638426,0.447191,0.616171,0.173376,0.728790
0.629273,0.446398,0.609590,0.171985,0.731301
0.620119,0.445605,0.603008,0.170594,0.733812
0.610965,0.444813,0.596427,0.169202,0.736323
0.601811,0.444020,0.589846,0.167811,0.738834
0.592657,0.443228,0.583264,0.166420,0.741345
0.583503,0.442435,0.576683,0.165029,0.743856
0.574349,0.441643,0.570102,0.163637,0.746367
0.565195,0.440850,0.563520,0.162246,0.748878
0.556042,0.440057,0.556939,0.160855,0.751389
0.546888,0.439265,0.550358,0.159464,0.753900
0.537734,0.438472,0.543776,0.158073,0.756411
0.528580,0.437680,0.537195,0.156681,0.758922
0.519426,0.436887,0.530613,0.155290,0.761433
0.510272,0.436094,0.524032,0.153899,0.763944
0.501118,0.435302,0.517451,0.152508,0.766455
0.491964,0.434509,0.510869,0.151116,0.768966
0.482811,0.433717,0.504288,0.149725,0.771477
0.473657,0.432924,0.497707,0.148334,0.773988
0.464503,0.432131,0.491125,0.146943,0.776499
0.455349,0.431339,0.484544,0.145552,0.779010
0.446195,0.430546,0.477963,0.144160,0.781521
0.437041,0.429754,0.471381,0.142769,0.784032
0.427887,0.428961,0.464800,0.141378,0.786543
0.418733,0.428169,0.458219,0.139987,0.789054
0.409580,0.427376,0.451637,0.138595,0.791565
0.400426,0.426583,0.445056,0.137204,0.794076
0.391272,0.425791,0.438474,0.135813,0.796587
0.382118,0.424998,0.431893,0.134422,0.799098
0.372964,0.424206,0.425312,0.133031,0.801609
0.363810,0.423413,0.418730,0.131639,0.804120
0.354656,0.422620,0.412149,0.130248,0.806631
0.345503,0.421828,0.405568,0.128857,0.809142
0.336349,0.421035,0.398986,0.127466,0.811653
0.327195,0.420243,0.392405,0.126074,0.814164
0.318041,0.419450,0.385824,0.124683,0.816675
0.308887,0.418657,0.379242,0.123292,0.819186
0.300043,0.417923,0.372840,0.122123,0.821522
0.291959,0.417330,0.366877,0.121499,0.823429
0.284738,0.416899,0.361412,0.121493,0.824848
0.278379,0.416630,0.356446,0.122106,0.825780
0.272884,0.416522,0.351979,0.123338,0.826224
0.268251,0.416575,0.348010,0.125188,0.826181
0.264482,0.416790,0.344540,0.127657,0.825651
0.261575,0.417166,0.341569,0.130745,0.824633
0.259532,0.417704,0.339096,0.134451,0.823127
0.258351,0.418403,0.337123,0.138776,0.821134
0.258033,0.419263,0.335647,0.143720,0.818654
0.258579,0.420285,0.334671,0.149283,0.815686
0.259987,0.421469,0.334193,0.155464,0.812231
0.262258,0.422813,0.334213,0.162264,0.808288
0.265392,0.424320,0.334733,0.169682,0.803858
0.269389,0.425987,0.335751,0.177719,0.798940
0.274249,0.427817,0.337268,0.186375,0.793535
0.279669,0.429751,0.339108,0.195432,0.787813
0.285200,0.431705,0.341012,0.204569,0.782029
0.290731,0.433660,0.342917,0.213706,0.776245
0.296262,0.435615,0.344821,0.222843,0.770461
0.301792,0.437569,0.346725,0.231980,0.764677
0.307323,0.439524,0.348630,0.241117,0.758893
0.312854,0.441479,0.350534,0.250254,0.753109
0.318385,0.443433,0.352439,0.259391,0.747325
0.323916,0.445388,0.354343,0.268527,0.741540
0.329447,0.447343,0.356247,0.277664,0.735756
0.334978,0.449298,0.358152,0.286801,0.729972
0.340509,0.451252,0.360056,0.295938,0.724188
0.346039,0.453207,0.361961,0.305075,0.718404
0.351570,0.455162,0.363865,0.314212,0.712620
0.357101,0.457116,0.365769,0.323349,0.706836
0.362632,0.459071,0.367674,0.332485,0.701052
0.368163,0.461026,0.369578,0.341622,0.695267
0.373694,0.462981,0.371483,0.350759,0.689483
0.379225,0.464935,0.373387,0.359896,0.683699
0.384756,0.466890,0.375292,0.369033,0.677915
0.390287,0.468845,0.377196,0.378170,0.672131
0.395817,0.470799,0.379100,0.387307,0.666347
0.401348,0.472754,0.381005,0.396444,0.660563
0.406879,0.474709,0.382909,0.405580,0.654778
0.412410,0.476663,0.384814,0.414717,0.648994
0.417941,0.478618,0.386718,0.423854,0.643210
0.423472,0.480573,0.388622,0.432991,0.637426
0.429003,0.482528,0.390527,0.442128,0.631642
0.434534,0.484482,0.392431,0.451265,0.625858
0.440064,0.486437,0.394336,0.460402,0.620074
0.445595,0.488392,0.396240,0.469539,0.614290
0.451126,0.490346,0.398144,0.478675,0.608505
0.456657,0.492301,0.400049,0.487812,0.602721
0.462188,0.494256,0.401953,0.496949,0.596937
0.467719,0.496211,0.403858,0.506086,0.591153
0.473250,0.498165,0.405762,0.515223,0.585369
0.478781,0.500120,0.407666,0.524360,0.579585
0.484311,0.502075,0.409571,0.533497,0.573801
0.489842,0.504029,0.411475,0.542634,0.568017
0.495373,0.505984,0.413380,0.551770,0.562232
0.500904,0.507939,0.415284,0.560907,0.556448
0.506435,0.509893,0.417188,0.570044,0.550664
0.511966,0.511848,0.419093,0.579181,0.544880
0.517497,0.513803,0.420997,0.588318,0.539096
0.523028,0.515758,0.422902,0.597455,0.533312
0.528559,0.517712,0.424806,0.606592,0.527528
0.534089,0.519667,0.426710,0.615728,0.521744
0.539620,0.521622,0.428615,0.624865,0.515959
0.545151,0.523576,0.430519,0.634002,0.510175
0.550682,0.525531,0.432424,0.643139,0.504391
0.556213,0.527486,0.434328,0.652276,0.498607
0.561744,0.529441,0.436232,0.661413,0.492823
0.567275,0.531395,0.438137,0.670550,0.487039
0.572806,0.533350,0.440041,0.679687,0.481255
0.578336,0.535305,0.441946,0.688823,0.475471
0.583867,0.537259,0.443850,0.697960,0.469686
0.589398,0.539214,0.445754,0.707097,0.463902
0.594929,0.541169,0.447659,0.716234,0.458118
0.600460,0.543123,0.449563,0.725371,0.452334
0.605991,0.545078,0.451468,0.734508,0.446550
0.611522,0.547033,0.453372,0.743645,0.440766
0.616778,0.548918,0.455254,0.752387,0.435194
0.621472,0.550660,0.457089,0.760320,0.430056
0.625531,0.552240,0.458872,0.767339,0.425410
0.628953,0.553659,0.460603,0.773444,0.421255
0.631740,0.554916,0.462281,0.778634,0.417591
0.633892,0.556011,0.463907,0.782910,0.414418
0.635407,0.556945,0.465481,0.786272,0.411737
0.636287,0.557717,0.467002,0.788719,0.409547
0.636531,0.558328,0.468470,0.790252,0.407848
0.636140,0.558776,0.469887,0.790871,0.406640
0.635113,0.559064,0.471251,0.790575,0.405923
0.633450,0.559189,0.472562,0.789365,0.405698
0.631151,0.559153,0.473821,0.787241,0.405964
0.628217,0.558956,0.475028,0.784203,0.406721
0.624647,0.558596,0.476183,0.780250,0.407969
0.620441,0.558075,0.477285,0.775382,0.409709
0.615599,0.557393,0.478334,0.769601,0.411940
0.610390,0.556617,0.479353,0.763290,0.414455
0.605103,0.555821,0.480366,0.756868,0.417030
0.599816,0.555025,0.481379,0.750445,0.419605
0.594530,0.554229,0.482392,0.744023,0.422180
0.589243,0.553433,0.483405,0.737601,0.424755
0.583956,0.552638,0.484418,0.731179,0.427330
0.578669,0.551842,0.485431,0.724757,0.429904
0.573382,0.551046,0.486444,0.718335,0.432479
0.568096,0.550250,0.487457,0.711913,0.435054
0.562809,0.549454,0.488469,0.705490,0.437629
0.557522,0.548659,0.489482,0.699068,0.440204
0.552235,0.547863,0.490495,0.692646,0.442779
0.546948,0.547067,0.491508,0.686224,0.445354
0.541662,0.546271,0.492521,0.679802,0.447929
0.536375,0.545475,0.493534,0.673380,0.450504
0.531088,0.544680,0.494547,0.666957,0.453079
0.525801,0.543884,0.495560,0.660535,0.455654
0.520514,0.543088,0.496573,0.654113,0.458229
0.515228,0.542292,0.497586,0.647691,0.460803
0.509941,0.541496,0.498598,0.641269,0.463378
0.504654,0.540701,0.499611,0.634847,0.465953
0.499367,0.539905,0.500624,0.628425,0.468528
0.494080,0.539109,0.501637,0.622002,0.471103
0.488794,0.538313,0.502650,0.615580,0.473678
0.483507,0.537517,0.503663,0.609158,0.476253
0.478220,0.536722,0.504676,0.602736,0.478828
0.472933,0.535926,0.505689,0.596314,0.481403
0.467647,0.535130,0.506702,0.589892,0.483978
0.462360,0.534334,0.507714,0.583470,0.486553
0.457073,0.533538,0.508727,0.577047,0.489128
0.451786,0.532743,0.509740,0.570625,0.491702
0.446499,0.531947,0.510753,0.564203,0.494277
0.441213,0.531151,0.511766,0.557781,0.496852
0.435926,0.530355,0.512779,0.551359,0.499427
0.430639,0.529559,0.513792,0.544937,0.502002
0.425352,0.528764,0.514805,0.538514,0.504577
0.420065,0.527968,0.515818,0.532092,0.507152
0.414779,0.527172,0.516831,0.525670,0.509727
0.409492,0.526376,0.517843,0.519248,0.512302
0.404205,0.525580,0.518856,0.512826,0.514877
0.398918,0.524785,0.519869,0.506404,0.517452
0.393631,0.523989,0.520882,0.499982,0.520027
0.388345,0.523193,0.521895,0.493559,0.522601
0.383058,0.522397,0.522908,0.487137,0.525176
0.377771,0.521601,0.523921,0.480715,0.527751
0.372484,0.520806,0.524934,0.474293,0.530326
0.367197,0.520010,0.525947,0.467871,0.532901
0.361911,0.519214,0.526959,0.461449,0.535476
0.356624,0.518418,0.527972,0.455026,0.538051
0.351337,0.517622,0.528985,0.448604,0.540626
0.346050,0.516827,0.529998,0.442182,0.543201
0.340763,0.516031,0.531011,0.435760,0.545776
0.335477,0.515235,0.532024,0.429338,0.548351
0.330190,0.514439,0.533037,0.422916,0.550926
0.324903,0.513643,0.534050,0.416494,0.553500
0.319616,0.512848,0.535063,0.410071,0.556075
0.314329,0.512052,0.536076,0.403649,0.558650
0.309043,0.511256,0.537088,0.397227,0.561225
0.303756,0.510460,0.538101,0.390805,0.563800
0.298469,0.509664,0.539114,0.384383,0.566375
0.293182,0.508869,0.540127,0.377961,0.568950
0.288015,0.508083,0.541055,0.371735,0.571539
0.283073,0.507316,0.541821,0.365883,0.574155
0.278380,0.506569,0.542410,0.360440,0.576801
0.273934,0.505844,0.542822,0.355406,0.579476
0.269737,0.505139,0.543056,0.350781,0.582180
0.265788,0.504455,0.543114,0.346565,0.584914
0.262086,0.503792,0.542994,0.342758,0.587678
0.258633,0.503149,0.542697,0.339361,0.590471
0.255427,0.502527,0.542223,0.336372,0.593293
0.252469,0.501926,0.541572,0.333793,0.596145
0.249760,0.501345,0.540743,0.331623,0.599026
0.247298,0.500785,0.539738,0.329862,0.601937
0.245085,0.500246,0.538555,0.328510,0.604878
0.243119,0.499728,0.537195,0.327567,0.607848
0.241401,0.499230,0.535658,0.327033,0.610847
0.239931,0.498753,0.533943,0.326909,0.613876
0.238710,0.498297,0.532052,0.327193,0.616935
0.237620,0.497851,0.530066,0.327696,0.620009
0.236553,0.497408,0.528064,0.328235,0.623086
0.235486,0.496965,0.526062,0.328775,0.626163
0.234419,0.496521,0.524060,0.329315,0.629239
0.233352,0.496078,0.522058,0.329854,0.632316
0.232284,0.495634,0.520056,0.330394,0.635393
0.231217,0.495191,0.518054,0.330934,0.638470
0.230150,0.494748,0.516053,0.331473,0.641547
0.229083,0.494304,0.514051,0.332013,0.644624
0.228016,0.493861,0.512049,0.332553,0.647701
0.226949,0.493417,0.510047,0.333092,0.650777
0.225882,0.492974,0.508045,0.333632,0.653854
0.224815,0.492531,0.506043,0.334172,0.656931
0.223747,0.492087,0.504041,0.334711,0.660008
0.222680,0.491644,0.502039,0.335251,0.663085
0.221613,0.491200,0.500037,0.335791,0.666162
0.220546,0.490757,0.498035,0.336330,0.669239
0.219479,0.490314,0.496033,0.336870,0.672315
0.218412,0.489870,0.494031,0.337410,0.675392
0.217345,0.489427,0.492029,0.337949,0.678469
0.216278,0.488983,0.490027,0.338489,0.681546
0.215210,0.488540,0.488025,0.339029,0.684623
0.214143,0.488097,0.486023,0.339568,0.687700
0.213076,0.487653,0.484021,0.340108,0.690776
0.212009,0.487210,0.482020,0.340648,0.693853
0.210942,0.486766,0.480018,0.341187,0.696930
0.209875,0.486323,0.478016,0.341727,0.700007
0.208808,0.485880,0.476014,0.342267,0.703084
0.207741,0.485436,0.474012,0.342806,0.706161
0.206674,0.484993,0.472010,0.343346,0.709238
0.205606,0.484549,0.470008,0.343886,0.712314
0.204539,0.484106,0.468006,0.344425,0.715391
0.203472,0.483663,0.466004,0.344965,0.718468
0.202405,0.483219,0.464002,0.345505,0.721545
