density,loudness,brightness,roughness,speed
0.839221,0.427529,0.811249,0.614701,0.433321
0.836470,0.427020,0.808819,0.614428,0.435861
0.833414,0.426455,0.806120,0.614124,0.438683
0.830053,0.425834,0.803152,0.613791,0.441787
0.826387,0.425157,0.799914,0.613427,0.445172
0.822415,0.424423,0.796406,0.613033,0.448840
0.818138,0.423632,0.792629,0.612608,0.452789
0.813556,0.422785,0.788582,0.612153,0.457020
0.808668,0.421882,0.784266,0.611668,0.461533
0.803476,0.420922,0.779680,0.611153,0.466328
0.798280,0.419962,0.775092,0.610637,0.471126
0.793085,0.419002,0.770503,0.610121,0.475923
0.787889,0.418041,0.765914,0.609605,0.480721
0.782693,0.417081,0.761326,0.609090,0.485519
0.777498,0.416121,0.756737,0.608574,0.490316
0.772302,0.415160,0.752149,0.608058,0.495114
0.767107,0.414200,0.747560,0.607542,0.499912
0.761911,0.413240,0.742972,0.607027,0.504709
0.756715,0.412280,0.738383,0.606511,0.509507
0.751520,0.411319,0.733795,0.605995,0.514305
0.746324,0.410359,0.729206,0.605479,0.519102
0.741129,0.409399,0.724617,0.604964,0.523900
0.735933,0.408439,0.720029,0.604448,0.528698
0.730737,0.407478,0.715440,0.603932,0.533495
0.725542,0.406518,0.710852,0.603416,0.538293
0.720346,0.405558,0.706263,0.602900,0.543091
0.715151,0.404597,0.701675,0.602385,0.547888
0.709955,0.403637,0.697086,0.601869,0.552686
0.704759,0.402677,0.692498,0.601353,0.557483
0.699564,0.401717,0.687909,0.600837,0.562281
0.694368,0.400756,0.683320,0.600322,0.567079
0.689173,0.399796,0.678732,0.599806,0.571876
0.683977,0.398836,0.674143,0.599290,0.576674
0.678781,0.397876,0.669555,0.598774,0.581472
0.673586,0.396915,0.664966,0.598259,0.586269
0.668390,0.395955,0.660378,0.597743,0.591067
0.663195,0.394995,0.655789,0.597227,0.595865
0.657999,0.394034,0.651201,0.596711,0.600662
0.652803,0.393074,0.646612,0.596196,0.605460
0.647608,0.392114,0.642024,0.595680,0.610258
0.642412,0.391154,0.637435,0.595164,0.615055
0.637217,0.390193,0.632846,0.594648,0.619853
0.632021,0.389233,0.628258,0.594133,0.624651
0.626825,0.388273,0.623669,0.593617,0.629448
0.621630,0.387313,0.619081,0.593101,0.634246
0.616434,0.386352,0.614492,0.592585,0.639044
0.611239,0.385392,0.609904,0.592070,0.643841
0.606043,0.384432,0.605315,0.591554,0.648639
0.600847,0.383471,0.600727,0.591038,0.653437
0.595652,0.382511,0.596138,0.590522,0.658234
0.590456,0.381551,0.591549,0.590007,0.663032
0.585261,0.380591,0.586961,0.589491,0.667829
0.580065,0.379630,0.582372,0.588975,0.672627
0.574869,0.378670,0.577784,0.588459,0.677425
0.569674,0.377710,0.573195,0.587944,0.682222
0.564478,0.376750,0.568607,0.587428,0.687020
0.559283,0.375789,0.564018,0.586912,0.691818
0.554087,0.374829,0.559430,0.586396,0.696615
0.548891,0.373869,0.554841,0.585881,0.701413
0.543696,0.372908,0.550252,0.585365,0.706211
0.538500,0.371948,0.545664,0.584849,0.711008
0.533305,0.370988,0.541075,0.584333,0.715806
0.528109,0.370028,0.536487,0.583818,0.720604
0.522913,0.369067,0.531898,0.583302,0.725401
0.517718,0.368107,0.527310,0.582786,0.730199
0.512522,0.367147,0.522721,0.582270,0.734997
0.507327,0.366187,0.518133,0.581755,0.739794
0.502131,0.365226,0.513544,0.581239,0.744592
0.496959,0.364268,0.509008,0.580740,0.749378
0.492054,0.363331,0.505052,0.580428,0.754039
0.487436,0.362418,0.501722,0.580317,0.758564
0.483105,0.361528,0.499019,0.580407,0.762954
0.479062,0.360662,0.496941,0.580699,0.767209
0.475305,0.359819,0.495490,0.581192,0.771328
0.471836,0.358999,0.494664,0.581887,0.775311
0.468655,0.358203,0.494465,0.582783,0.779159
0.465760,0.357430,0.494892,0.583880,0.782872
0.463153,0.356681,0.495944,0.585178,0.786449
0.460833,0.355955,0.497623,0.586678,0.789891
0.458800,0.355253,0.499928,0.588380,0.793197
0.457054,0.354574,0.502859,0.590282,0.796368
0.455596,0.353918,0.506416,0.592386,0.799404
0.454425,0.353285,0.510599,0.594691,0.802304
0.453541,0.352677,0.515409,0.597198,0.805069
0.452945,0.352091,0.520844,0.599906,0.807698
0.452612,0.351527,0.526854,0.602799,0.810203
0.452305,0.350965,0.532921,0.605710,0.812695
0.451999,0.350403,0.538989,0.608622,0.815187
0.451692,0.349841,0.545056,0.611533,0.817680
0.451386,0.349280,0.551124,0.614444,0.820172
0.451079,0.348718,0.557191,0.617356,0.822665
0.450772,0.348156,0.563259,0.620267,0.825157
0.450466,0.347594,0.569326,0.623178,0.827650
0.450159,0.347032,0.575393,0.626090,0.830142
0.449853,0.346470,0.581461,0.629001,0.832634
0.449546,0.345908,0.587528,0.631912,0.835127
0.449240,0.345347,0.593596,0.634823,0.837619
0.448933,0.344785,0.599663,0.637735,0.840112
0.448627,0.344223,0.605731,0.640646,0.842604
0.448320,0.343661,0.611798,0.643557,0.845097
0.448014,0.343099,0.617865,0.646469,0.847589
0.447707,0.342537,0.623933,0.649380,0.850081
0.447400,0.341975,0.630000,0.652291,0.852574
0.447094,0.341414,0.636068,0.655203,0.855066
0.446787,0.340852,0.642135,0.658114,0.857559
0.446481,0.340290,0.648203,0.661025,0.860051
0.446174,0.339728,0.654270,0.663937,0.862544
0.445868,0.339166,0.660337,0.666848,0.865036
0.445561,0.338604,0.666405,0.669759,0.867528
0.445255,0.338042,0.672472,0.672671,0.870021
0.444948,0.337480,0.678540,0.675582,0.872513
0.444642,0.336919,0.684607,0.678493,0.875006
0.444335,0.336357,0.690675,0.681405,0.877498
0.444028,0.335795,0.696742,0.684316,0.879991
0.443722,0.335233,0.702809,0.687227,0.882483
0.443415,0.334671,0.708877,0.690138,0.884975
0.443109,0.334109,0.714944,0.693050,0.887468
0.442802,0.333547,0.721012,0.695961,0.889960
0.442496,0.332986,0.727079,0.698872,0.892453
0.442189,0.332424,0.733147,0.701784,0.894945
0.441883,0.331862,0.739214,0.704695,0.897438
0.441576,0.331300,0.745281,0.707606,0.899930
0.441270,0.330738,0.751349,0.710518,0.902422
0.440963,0.330176,0.757416,0.713429,0.904915
0.440657,0.329614,0.763484,0.716340,0.907407
0.440350,0.329053,0.769551,0.719252,0.909900
0.440043,0.328491,0.775619,0.722163,0.912392
0.439737,0.327929,0.781686,0.725074,0.914885
0.439430,0.327367,0.787753,0.727986,0.917377
0.439124,0.326805,0.793821,0.730897,0.919869
0.438817,0.326243,0.799888,0.733808,0.922362
0.438511,0.325681,0.805956,0.736720,0.924854
0.438204,0.325119,0.812023,0.739631,0.927347
0.437898,0.324558,0.818091,0.742542,0.929839
0.437591,0.323996,0.824158,0.745454,0.932332
0.437285,0.323434,0.830225,0.748365,0.934824
0.436978,0.322872,0.836293,0.751276,0.937316
0.436671,0.322310,0.842360,0.754187,0.939809
0.436365,0.321748,0.848428,0.757099,0.942301
0.436058,0.321186,0.854495,0.760010,0.944794
0.435752,0.320625,0.860563,0.762921,0.947286
0.435445,0.320063,0.866630,0.765833,0.949779
0.435139,0.319501,0.872697,0.768744,0.952271
0.434832,0.318939,0.878765,0.771655,0.954763
0.434505,0.318373,0.884725,0.774532,0.957203
0.434059,0.317782,0.890075,0.777209,0.959345
0.433476,0.317164,0.894715,0.779656,0.961139
0.432755,0.316517,0.898646,0.781871,0.962586
0.431897,0.315842,0.901866,0.783855,0.963686
0.430901,0.315139,0.904376,0.785608,0.964438
0.429767,0.314407,0.906177,0.787129,0.964844
0.428496,0.313648,0.907268,0.788419,0.964901
0.427087,0.312860,0.907648,0.789478,0.964612
0.425541,0.312044,0.907319,0.790306,0.963976
0.423857,0.311199,0.906280,0.790903,0.962992
0.422035,0.310327,0.904531,0.791268,0.961661
0.420076,0.309426,0.902072,0.791402,0.959982
0.417979,0.308497,0.898903,0.791305,0.957957
0.415745,0.307540,0.895025,0.790977,0.955584
0.413373,0.306555,0.890436,0.790417,0.952864
0.410863,0.305541,0.885138,0.789626,0.949796
0.408236,0.304503,0.879234,0.788638,0.946433
0.405587,0.303461,0.873219,0.787614,0.943014
0.402939,0.302419,0.867203,0.786589,0.939596
0.400290,0.301377,0.861188,0.785565,0.936178
0.397642,0.300335,0.855173,0.784541,0.932760
0.394993,0.299293,0.849157,0.783516,0.929342
0.392344,0.298251,0.843142,0.782492,0.925924
0.389696,0.297209,0.837127,0.781467,0.922506
0.387047,0.296166,0.831111,0.780443,0.919088
0.384399,0.295124,0.825096,0.779419,0.915670
0.381750,0.294082,0.819081,0.778394,0.912252
0.379102,0.293040,0.813065,0.777370,0.908834
0.376453,0.291998,0.807050,0.776346,0.905415
0.373804,0.290956,0.801035,0.775321,0.901997
0.371156,0.289914,0.795019,0.774297,0.898579
0.368507,0.288872,0.789004,0.773272,0.895161
0.365859,0.287830,0.782989,0.772248,0.891743
0.363210,0.286787,0.776973,0.771224,0.888325
0.360561,0.285745,0.770958,0.770199,0.884907
0.357913,0.284703,0.764943,0.769175,0.881489
0.355264,0.283661,0.758927,0.768151,0.878071
0.352616,0.282619,0.752912,0.767126,0.874653
0.349967,0.281577,0.746897,0.766102,0.871235
0.347318,0.280535,0.740881,0.765078,0.867817
0.344670,0.279493,0.734866,0.764053,0.864398
0.342021,0.278451,0.728851,0.763029,0.860980
0.339373,0.277408,0.722835,0.762004,0.857562
0.336724,0.276366,0.716820,0.760980,0.854144
0.334076,0.275324,0.710805,0.759956,0.850726
0.331427,0.274282,0.704789,0.758931,0.847308
0.328778,0.273240,0.698774,0.757907,0.843890
0.326130,0.272198,0.692759,0.756883,0.840472
0.323481,0.271156,0.686743,0.755858,0.837054
0.320833,0.270114,0.680728,0.754834,0.833636
0.318184,0.269072,0.674713,0.753810,0.830218
0.315535,0.268030,0.668697,0.752785,0.826800
0.312887,0.266987,0.662682,0.751761,0.823381
0.310238,0.265945,0.656667,0.750736,0.819963
0.307590,0.264903,0.650652,0.749712,0.816545
0.304941,0.263861,0.644636,0.748688,0.813127
0.302292,0.262819,0.638621,0.747663,0.809709
0.299644,0.261777,0.632606,0.746639,0.806291
0.296995,0.260735,0.626590,0.745615,0.802873
0.294347,0.259693,0.620575,0.744590,0.799455
0.291698,0.258651,0.614560,0.743566,0.796037
0.289050,0.257608,0.608544,0.742542,0.792619
0.286401,0.256566,0.602529,0.741517,0.789201
0.283752,0.255524,0.596514,0.740493,0.785783
0.281104,0.254482,0.590498,0.739468,0.782364
0.278455,0.253440,0.584483,0.738444,0.778946
0.275807,0.252398,0.578468,0.737420,0.775528
0.273158,0.251356,0.572452,0.736395,0.772110
0.270509,0.250314,0.566437,0.735371,0.768692
0.267861,0.249272,0.560422,0.734347,0.765274
0.265212,0.248230,0.554406,0.733322,0.761856
0.262564,0.247187,0.548391,0.732298,0.758438
0.259915,0.246145,0.542376,0.731274,0.755020
0.257266,0.245103,0.536360,0.730249,0.751602
0.254618,0.244061,0.530345,0.729225,0.748184
0.251995,0.243053,0.524432,0.728147,0.744841
0.249473,0.242183,0.518931,0.726855,0.741800
0.247078,0.241483,0.513939,0.725298,0.739132
0.244809,0.240952,0.509455,0.723476,0.736837
0.242666,0.240592,0.505480,0.721390,0.734915
0.240649,0.240401,0.502014,0.719038,0.733366
0.238757,0.240381,0.499057,0.716421,0.732190
0.236992,0.240530,0.496608,0.713540,0.731388
0.235353,0.240850,0.494668,0.710394,0.730958
0.233840,0.241340,0.493237,0.706982,0.730902
0.232453,0.241999,0.492315,0.703306,0.731219
0.231192,0.242829,0.491902,0.699365,0.731908
0.230057,0.243828,0.491997,0.695159,0.732971
0.229047,0.244997,0.492601,0.690689,0.734407
0.228164,0.246337,0.493714,0.685953,0.736216
0.227407,0.247846,0.495336,0.680952,0.738399
0.226776,0.249526,0.497466,0.675687,0.740954
0.226247,0.251342,0.500006,0.670208,0.743809
0.225743,0.253193,0.502650,0.664675,0.746741
0.225239,0.255044,0.505294,0.659142,0.749673
0.224735,0.256895,0.507938,0.653609,0.752605
0.224232,0.258746,0.510583,0.648076,0.755537
0.223728,0.260597,0.513227,0.642543,0.758469
0.223224,0.262448,0.515871,0.637010,0.761401
0.222720,0.264299,0.518515,0.631477,0.764333
0.222217,0.266150,0.521160,0.625944,0.767265
0.221713,0.268001,0.523804,0.620411,0.770197
0.221209,0.269852,0.526448,0.614878,0.773129
0.220705,0.271704,0.529093,0.609345,0.776061
0.220201,0.273555,0.531737,0.603812,0.778993
0.219698,0.275406,0.534381,0.598279,0.781925
0.219194,0.277257,0.537025,0.592746,0.784857
0.218690,0.279108,0.539670,0.587212,0.787789
0.218186,0.280959,0.542314,0.581679,0.790721
0.217683,0.282810,0.544958,0.576146,0.793653
0.217179,0.284661,0.547602,0.570613,0.796585
0.216675,0.286512,0.550247,0.565080,0.799517
0.216171,0.288363,0.552891,0.559547,0.802449
0.215668,0.290214,0.555535,0.554014,0.805381
0.215164,0.292065,0.558179,0.548481,0.808313
0.214660,0.293916,0.560824,0.542948,0.811245
0.214156,0.295767,0.563468,0.537415,0.814177
0.213653,0.297619,0.566112,0.531882,0.817109
0.213149,0.299470,0.568757,0.526349,0.820041
0.212645,0.301321,0.571401,0.520816,0.822973
0.212141,0.303172,0.574045,0.515283,0.825905
0.211637,0.305023,0.576689,0.509750,0.828837
0.211134,0.306874,0.579334,0.504217,0.831769
0.210630,0.308725,0.581978,0.498684,0.834701
0.210126,0.310576,0.584622,0.493151,0.837634
0.209622,0.312427,0.587266,0.487618,0.840566
0.209119,0.314278,0.589911,0.482085,0.843498
0.208615,0.316129,0.592555,0.476552,0.846430
0.208111,0.317980,0.595199,0.471019,0.849362
0.207607,0.319831,0.597844,0.465486,0.852294
0.207104,0.321682,0.600488,0.459952,0.855226
0.206600,0.323533,0.603132,0.454419,0.858158
0.206096,0.325385,0.605776,0.448886,0.861090
0.205592,0.327236,0.608421,0.443353,0.864022
0.205088,0.329087,0.611065,0.437820,0.866954
0.204585,0.330938,0.613709,0.432287,0.869886
0.204081,0.332789,0.616353,0.426754,0.872818
0.203577,0.334640,0.618998,0.421221,0.875750
0.203073,0.336491,0.621642,0.415688,0.878682
0.202570,0.338342,0.624286,0.410155,0.881614
0.202066,0.340193,0.626931,0.404622,0.884546
0.201562,0.342044,0.629575,0.399089,0.887478
0.201058,0.343895,0.632219,0.393556,0.890410
0.200555,0.345746,0.634863,0.388023,0.893342
0.200051,0.347597,0.637508,0.382490,0.896274
0.199547,0.349448,0.640152,0.376957,0.899206
0.199043,0.351300,0.642796,0.371424,0.902138
0.198540,0.353151,0.645440,0.365891,0.905070
0.198036,0.355002,0.648085,0.360358,0.908002
0.197532,0.356853,0.650729,0.354825,0.910934
0.197028,0.358704,0.653373,0.349292,0.913866
0.196617,0.360550,0.655951,0.343888,0.916739
0.196509,0.362381,0.658311,0.338911,0.919417
0.196792,0.364192,0.660389,0.334485,0.921843
0.197467,0.365984,0.662186,0.330609,0.924018
0.198533,0.367755,0.663701,0.327283,0.925942
0.199991,0.369506,0.664935,0.324507,0.927614
0.201841,0.371238,0.665887,0.322283,0.929035
0.204082,0.372950,0.666558,0.320608,0.930204
0.206715,0.374642,0.666947,0.319484,0.931122
0.209739,0.376314,0.667054,0.318910,0.931788
0.213155,0.377966,0.666880,0.318887,0.932203
0.216962,0.379598,0.666425,0.319414,0.932366
0.221161,0.381210,0.665688,0.320491,0.932278
0.225751,0.382803,0.664669,0.322119,0.931938
0.230733,0.384375,0.663369,0.324297,0.931347
0.236107,0.385928,0.661787,0.327026,0.930505
0.241872,0.387461,0.659924,0.330305,0.929411
0.247939,0.388979,0.657844,0.334009,0.928123
0.254100,0.390491,0.655696,0.337844,0.926775
0.260260,0.392004,0.653549,0.341679,0.925427
0.266421,0.393517,0.651401,0.345514,0.924079
0.272582,0.395030,0.649254,0.349349,0.922732
0.278742,0.396543,0.647106,0.353184,0.921384
0.284903,0.398055,0.644958,0.357019,0.920036
0.291063,0.399568,0.642811,0.360854,0.918688
0.297224,0.401081,0.640663,0.364689,0.917340
0.303384,0.402594,0.638516,0.368524,0.915992
0.309545,0.404107,0.636368,0.372359,0.914644
0.315705,0.405619,0.634221,0.376194,0.913296
0.321866,0.407132,0.632073,0.380029,0.911948
0.328027,0.408645,0.629926,0.383864,0.910601
0.334187,0.410158,0.627778,0.387699,0.909253
0.340348,0.411671,0.625631,0.391534,0.907905
0.346508,0.413183,0.623483,0.395369,0.906557
0.352669,0.414696,0.621335,0.399204,0.905209
0.358829,0.416209,0.619188,0.403039,0.903861
0.364990,0.417722,0.617040,0.406874,0.902513
0.371150,0.419235,0.614893,0.410709,0.901165
0.377311,0.420747,0.612745,0.414544,0.899817
0.383472,0.422260,0.610598,0.418379,0.898470
0.389632,0.423773,0.608450,0.422214,0.897122
0.395793,0.425286,0.606303,0.426049,0.895774
0.401953,0.426799,0.604155,0.429884,0.894426
0.408114,0.428311,0.602008,0.433719,0.893078
0.414274,0.429824,0.599860,0.437554,0.891730
0.420435,0.431337,0.597712,0.441389,0.890382
0.426595,0.432850,0.595565,0.445224,0.889034
0.432756,0.434363,0.593417,0.449059,0.887686
0.438917,0.435875,0.591270,0.452894,0.886339
0.445077,0.437388,0.589122,0.456729,0.884991
0.451238,0.438901,0.586975,0.460564,0.883643
0.457398,0.440414,0.584827,0.464399,0.882295
0.463559,0.441927,0.582680,0.468234,0.880947
0.469719,0.443439,0.580532,0.472069,0.879599
0.475880,0.444952,0.578385,0.475904,0.878251
0.482040,0.446465,0.576237,0.479739,0.876903
0.488201,0.447978,0.574089,0.483574,0.875555
0.494362,0.449491,0.571942,0.487409,0.874208
0.500522,0.451003,0.569794,0.491244,0.872860
0.506683,0.452516,0.567647,0.495079,0.871512
0.512843,0.454029,0.565499,0.498914,0.870164
0.519004,0.455542,0.563352,0.502749,0.868816
0.525164,0.457055,0.561204,0.506584,0.867468
0.531325,0.458567,0.559057,0.510419,0.866120
0.537485,0.460080,0.556909,0.514254,0.864772
0.543646,0.461593,0.554762,0.518089,0.863424
0.549807,0.463106,0.552614,0.521924,0.862077
0.555967,0.464619,0.550466,0.525759,0.860729
0.562128,0.466131,0.548319,0.529594,0.859381
0.568288,0.467644,0.546171,0.533429,0.858033
0.574449,0.469157,0.544024,0.537264,0.856685
0.580609,0.470670,0.541876,0.541099,0.855337
0.586770,0.472183,0.539729,0.544934,0.853989
0.592930,0.473695,0.537581,0.548769,0.852641
0.599091,0.475208,0.535434,0.552604,0.851294
0.605252,0.476721,0.533286,0.556439,0.849946
0.611347,0.478192,0.531210,0.560240,0.848501
0.617248,0.479537,0.529347,0.563942,0.846765
0.622891,0.480716,0.527766,0.567511,0.844646
0.628278,0.481729,0.526468,0.570949,0.842142
0.633407,0.482577,0.525451,0.574255,0.839255
0.638279,0.483258,0.524716,0.577429,0.835985
0.642894,0.483773,0.524263,0.580470,0.832330
0.647252,0.484123,0.524092,0.583380,0.828291
0.651352,0.484306,0.524203,0.586158,0.823869
0.655196,0.484323,0.524595,0.588804,0.819063
0.658782,0.484175,0.525270,0.591318,0.813873
0.662111,0.483860,0.526227,0.593700,0.808300
0.665183,0.483380,0.527465,0.595950,0.802342
0.667997,0.482733,0.528986,0.598068,0.796001
0.670555,0.481921,0.530789,0.600054,0.789276
0.672855,0.480943,0.532873,0.601908,0.782167
0.674898,0.479798,0.535239,0.603630,0.774674
0.676747,0.478529,0.537819,0.605252,0.766891
0.678530,0.477217,0.540470,0.606841,0.759011
0.680313,0.475905,0.543122,0.608429,0.751131
0.682097,0.474593,0.545773,0.610018,0.743250
0.683880,0.473281,0.548424,0.611607,0.735370
0.685663,0.471969,0.551075,0.613195,0.727490
0.687447,0.470657,0.553726,0.614784,0.719609
0.689230,0.469345,0.556378,0.616373,0.711729
0.691013,0.468033,0.559029,0.617962,0.703848
0.692797,0.466721,0.561680,0.619550,0.695968
0.694580,0.465409,0.564331,0.621139,0.688088
0.696363,0.464097,0.566983,0.622728,0.680207
0.698147,0.462785,0.569634,0.624316,0.672327
0.699930,0.461473,0.572285,0.625905,0.664447
0.701713,0.460161,0.574936,0.627494,0.656566
0.703497,0.458849,0.577587,0.629082,0.648686
0.705280,0.457537,0.580239,0.630671,0.640806
0.707063,0.456226,0.582890,0.632260,0.632925
0.708847,0.454914,0.585541,0.633849,0.625045
0.710630,0.453602,0.588192,0.635437,0.617165
0.712413,0.452290,0.590844,0.637026,0.609284
0.714197,0.450978,0.593495,0.638615,0.601404
0.715980,0.449666,0.596146,0.640203,0.593523
0.717763,0.448354,0.598797,0.641792,0.585643
0.719547,0.447042,0.601448,0.643381,0.577763
0.721330,0.445730,0.604100,0.644970,0.569882
0.723113,0.444418,0.606751,0.646558,0.562002
0.724897,0.443106,0.609402,0.648147,0.554122
0.726680,0.441794,0.612053,0.649736,0.546241
0.728463,0.440482,0.614704,0.651324,0.538361
0.730247,0.439170,0.617356,0.652913,0.530481
0.732030,0.437858,0.620007,0.654502,0.522600
0.733814,0.436546,0.622658,0.656091,0.514720
0.735597,0.435234,0.625309,0.657679,0.506839
0.737380,0.433922,0.627961,0.659268,0.498959
0.739164,0.432610,0.630612,0.660857,0.491079
0.740947,0.431299,0.633263,0.662445,0.483198
0.742730,0.429987,0.635914,0.664034,0.475318
0.744514,0.428675,0.638565,0.665623,0.467438
0.746297,0.427363,0.641217,0.667212,0.459557
0.748080,0.426051,0.643868,0.668800,0.451677
0.749864,0.424739,0.646519,0.670389,0.443797
0.751647,0.423427,0.649170,0.671978,0.435916
0.753430,0.422115,0.651822,0.673566,0.428036
