density,loudness,brightness,roughness,speed
0.671006,0.810985,0.403529,0.168648,0.924940
0.672880,0.811087,0.404914,0.170357,0.922788
0.674962,0.811200,0.406454,0.172256,0.920397
0.677251,0.811324,0.408147,0.174345,0.917768
0.679749,0.811459,0.409994,0.176623,0.914900
0.682455,0.811606,0.411994,0.179091,0.911793
0.685368,0.811764,0.414149,0.181749,0.908448
0.688490,0.811934,0.416457,0.184597,0.904864
0.691819,0.812114,0.418919,0.187634,0.901041
0.695357,0.812306,0.421535,0.190861,0.896979
0.698896,0.812498,0.424152,0.194089,0.892914
0.702436,0.812690,0.426769,0.197318,0.888850
0.705975,0.812882,0.429386,0.200547,0.884786
0.709515,0.813074,0.432004,0.203775,0.880721
0.713054,0.813266,0.434621,0.207004,0.876657
0.716594,0.813458,0.437238,0.210233,0.872593
0.720133,0.813650,0.439856,0.213462,0.868529
0.723673,0.813842,0.442473,0.216690,0.864464
0.727212,0.814034,0.445090,0.219919,0.860400
0.730752,0.814226,0.447707,0.223148,0.856336
0.734291,0.814418,0.450325,0.226376,0.852271
0.737831,0.814610,0.452942,0.229605,0.848207
0.741370,0.814802,0.455559,0.232834,0.844143
0.744910,0.814994,0.458177,0.236063,0.840078
0.748449,0.815186,0.460794,0.239291,0.836014
0.751989,0.815378,0.463411,0.242520,0.831950
0.755528,0.815571,0.466028,0.245749,0.827885
0.759068,0.815763,0.468646,0.248977,0.823821
0.762607,0.815955,0.471263,0.252206,0.819757
0.766147,0.816147,0.473880,0.255435,0.815693
0.769686,0.816339,0.476498,0.258664,0.811628
0.773226,0.816531,0.479115,0.261892,0.807564
0.776765,0.816723,0.481732,0.265121,0.803500
0.780305,0.816915,0.484350,0.268350,0.799435
0.783844,0.817107,0.486967,0.271578,0.795371
0.787384,0.817299,0.489584,0.274807,0.791307
0.790923,0.817491,0.492201,0.278036,0.787242
0.794463,0.817683,0.494819,0.281265,0.783178
0.798002,0.817875,0.497436,0.284493,0.779114
0.801542,0.818067,0.500053,0.287722,0.775050
0.805081,0.818259,0.502671,0.290951,0.770985
0.808621,0.818451,0.505288,0.294180,0.766921
0.812160,0.818643,0.507905,0.297408,0.762857
0.815700,0.818835,0.510522,0.300637,0.758792
0.819239,0.819027,0.513140,0.303866,0.754728
0.822779,0.819219,0.515757,0.307094,0.750664
0.826318,0.819411,0.518374,0.310323,0.746599
0.829858,0.819603,0.520992,0.313552,0.742535
0.833397,0.819795,0.523609,0.316781,0.738471
0.836937,0.819987,0.526226,0.320009,0.734406
0.840476,0.820179,0.528843,0.323238,0.730342
0.844016,0.820371,0.531461,0.326467,0.726278
0.847555,0.820563,0.534078,0.329695,0.722214
0.851095,0.820755,0.536695,0.332924,0.718149
0.854634,0.820947,0.539313,0.336153,0.714085
0.858174,0.821139,0.541930,0.339382,0.710021
0.861713,0.821331,0.544547,0.342610,0.705956
0.865253,0.821523,0.547164,0.345839,0.701892
0.868792,0.821715,0.549782,0.349068,0.697828
0.872332,0.821907,0.552399,0.352296,0.693763
0.875871,0.822099,0.555016,0.355525,0.689699
0.879411,0.822291,0.557634,0.358754,0.685635
0.882950,0.822484,0.560251,0.361983,0.681571
0.886490,0.822676,0.562868,0.365211,0.677506
0.890029,0.822868,0.565485,0.368440,0.673442
0.893569,0.823060,0.568103,0.371669,0.669378
0.897108,0.823252,0.570720,0.374898,0.665313
0.900648,0.823444,0.573337,0.378126,0.661249
0.904187,0.823636,0.575955,0.381355,0.657185
0.907727,0.823828,0.578572,0.384584,0.653120
0.911266,0.824020,0.581189,0.387812,0.649056
0.914497,0.824095,0.583792,0.390705,0.644972
0.917312,0.824012,0.586375,0.393145,0.640861
0.919703,0.823769,0.588938,0.395124,0.636722
0.921671,0.823366,0.591480,0.396643,0.632556
0.923216,0.822802,0.594003,0.397700,0.628363
0.924337,0.822077,0.596505,0.398297,0.624142
0.925034,0.821192,0.598988,0.398433,0.619894
0.925309,0.820147,0.601450,0.398108,0.615618
0.925159,0.818941,0.603893,0.397323,0.611315
0.924587,0.817575,0.606315,0.396076,0.606985
0.923591,0.816048,0.608717,0.394369,0.602627
0.922171,0.814361,0.611099,0.392201,0.598242
0.920328,0.812513,0.613461,0.389572,0.593829
0.918062,0.810505,0.615803,0.386482,0.589389
0.915372,0.808336,0.618125,0.382932,0.584922
0.912259,0.806007,0.620427,0.378921,0.580427
0.908722,0.803518,0.622708,0.374448,0.575905
0.905064,0.800982,0.624984,0.369844,0.571375
0.901396,0.798443,0.627260,0.365228,0.566844
0.897728,0.795903,0.629535,0.360613,0.562313
0.894060,0.793364,0.631810,0.355998,0.557783
0.890391,0.790825,0.634086,0.351383,0.553252
0.886723,0.788286,0.636361,0.346768,0.548721
0.883055,0.785746,0.638637,0.342152,0.544190
0.879387,0.783207,0.640912,0.337537,0.539660
0.875719,0.780668,0.643187,0.332922,0.535129
0.872051,0.778128,0.645463,0.328307,0.530598
0.868383,0.775589,0.647738,0.323692,0.526068
0.864715,0.773050,0.650014,0.319077,0.521537
0.861047,0.770510,0.652289,0.314461,0.517006
0.857379,0.767971,0.654564,0.309846,0.512476
0.853711,0.765432,0.656840,0.305231,0.507945
0.850043,0.762892,0.659115,0.300616,0.503414
0.846375,0.760353,0.661391,0.296001,0.498883
0.842707,0.757814,0.663666,0.291386,0.494353
0.839038,0.755274,0.665941,0.286770,0.489822
0.835370,0.752735,0.668217,0.282155,0.485291
0.831702,0.750196,0.670492,0.277540,0.480761
0.828034,0.747656,0.672768,0.272925,0.476230
0.824366,0.745117,0.675043,0.268310,0.471699
0.820698,0.742578,0.677319,0.263694,0.467169
0.817030,0.740038,0.679594,0.259079,0.462638
0.813362,0.737499,0.681869,0.254464,0.458107
0.809694,0.734960,0.684145,0.249849,0.453576
0.806026,0.732420,0.686420,0.245234,0.449046
0.802358,0.729881,0.688696,0.240619,0.444515
0.798690,0.727342,0.690971,0.236003,0.439984
0.795022,0.724803,0.693246,0.231388,0.435454
0.791354,0.722263,0.695522,0.226773,0.430923
0.787685,0.719724,0.697797,0.222158,0.426392
0.784017,0.717185,0.700073,0.217543,0.421862
0.780349,0.714645,0.702348,0.212928,0.417331
0.776681,0.712106,0.704623,0.208312,0.412800
0.773013,0.709567,0.706899,0.203697,0.408269
0.769345,0.707027,0.709174,0.199082,0.403739
0.765677,0.704488,0.711450,0.194467,0.399208
0.762009,0.701949,0.713725,0.189852,0.394677
0.758341,0.699409,0.716001,0.185236,0.390147
0.754673,0.696870,0.718276,0.180621,0.385616
0.751005,0.694331,0.720551,0.176006,0.381085
0.747337,0.691791,0.722827,0.171391,0.376555
0.743669,0.689252,0.725102,0.166776,0.372024
0.740001,0.686713,0.727378,0.162161,0.367493
0.736333,0.684173,0.729653,0.157545,0.362963
0.732664,0.681634,0.731928,0.152930,0.358432
0.728996,0.679095,0.734204,0.148315,0.353901
0.725328,0.676555,0.736479,0.143700,0.349370
0.721660,0.674016,0.738755,0.139085,0.344840
0.717992,0.671477,0.741030,0.134470,0.340309
0.714324,0.668937,0.743305,0.129854,0.335778
0.710656,0.666398,0.745581,0.125239,0.331248
0.706988,0.663859,0.747856,0.120624,0.326717
0.703320,0.661320,0.750132,0.116009,0.322186
0.699652,0.658780,0.752407,0.111394,0.317656
0.695984,0.656241,0.754683,0.106779,0.313125
0.692316,0.653702,0.756958,0.102163,0.308594
0.688648,0.651162,0.759233,0.097548,0.304063
0.684980,0.648623,0.761509,0.092933,0.299533
0.681425,0.646214,0.763660,0.088579,0.295295
0.678085,0.644051,0.765577,0.084720,0.291612
0.674977,0.642156,0.767239,0.081397,0.288530
0.672102,0.640527,0.768647,0.078609,0.286048
0.669460,0.639166,0.769801,0.076358,0.284168
0.667050,0.638071,0.770701,0.074642,0.282888
0.664872,0.637244,0.771346,0.073462,0.282209
0.662927,0.636683,0.771737,0.072818,0.282131
0.661215,0.636390,0.771874,0.072710,0.282653
0.659735,0.636363,0.771757,0.073137,0.283777
0.658487,0.636604,0.771385,0.074100,0.285501
0.657472,0.637111,0.770759,0.075600,0.287826
0.656690,0.637885,0.769879,0.077635,0.290751
0.656140,0.638927,0.768745,0.080205,0.294278
0.655822,0.640235,0.767356,0.083312,0.298405
0.655737,0.641811,0.765714,0.086954,0.303133
0.655885,0.643653,0.763816,0.091132,0.308461
0.656155,0.645636,0.761786,0.095593,0.314106
0.656444,0.647642,0.759733,0.100098,0.319802
0.656733,0.649647,0.757681,0.104603,0.325497
0.657023,0.651653,0.755629,0.109108,0.331192
0.657312,0.653658,0.753576,0.113614,0.336888
0.657602,0.655664,0.751524,0.118119,0.342583
0.657891,0.657669,0.749472,0.122624,0.348279
0.658180,0.659675,0.747420,0.127130,0.353974
0.658470,0.661680,0.745367,0.131635,0.359670
0.658759,0.663686,0.743315,0.136140,0.365365
0.659049,0.665691,0.741263,0.140646,0.371061
0.659338,0.667697,0.739210,0.145151,0.376756
0.659628,0.669702,0.737158,0.149656,0.382452
0.659917,0.671708,0.735106,0.154162,0.388147
0.660206,0.673713,0.733053,0.158667,0.393843
0.660496,0.675719,0.731001,0.163172,0.399538
0.660785,0.677724,0.728949,0.167678,0.405233
0.661075,0.679730,0.726897,0.172183,0.410929
0.661364,0.681735,0.724844,0.176688,0.416624
0.661653,0.683741,0.722792,0.181194,0.422320
0.661943,0.685746,0.720740,0.185699,0.428015
0.662232,0.687752,0.718687,0.190204,0.433711
0.662522,0.689757,0.716635,0.194710,0.439406
0.662811,0.691763,0.714583,0.199215,0.445102
0.663101,0.693768,0.712530,0.203720,0.450797
0.663390,0.695774,0.710478,0.208226,0.456493
0.663679,0.697779,0.708426,0.212731,0.462188
0.663969,0.699785,0.706373,0.217236,0.467884
0.664258,0.701790,0.704321,0.221742,0.473579
0.664548,0.703796,0.702269,0.226247,0.479274
0.664837,0.705801,0.700217,0.230752,0.484970
0.665126,0.707807,0.698164,0.235258,0.490665
0.665416,0.709812,0.696112,0.239763,0.496361
0.665705,0.711818,0.694060,0.244268,0.502056
0.665995,0.713823,0.692007,0.248774,0.507752
0.666284,0.715828,0.689955,0.253279,0.513447
0.666573,0.717834,0.687903,0.257784,0.519143
0.666863,0.719839,0.685850,0.262290,0.524838
0.667152,0.721845,0.683798,0.266795,0.530534
0.667442,0.723850,0.681746,0.271300,0.536229
0.667731,0.725856,0.679694,0.275806,0.541925
0.668021,0.727861,0.677641,0.280311,0.547620
0.668310,0.729867,0.675589,0.284816,0.553315
0.668599,0.731872,0.673537,0.289322,0.559011
0.668889,0.733878,0.671484,0.293827,0.564706
0.669178,0.735883,0.669432,0.298332,0.570402
0.669468,0.737889,0.667380,0.302838,0.576097
0.669757,0.739894,0.665327,0.307343,0.581793
0.670046,0.741900,0.663275,0.311848,0.587488
0.670336,0.743905,0.661223,0.316353,0.593184
0.670625,0.745911,0.659171,0.320859,0.598879
0.670915,0.747916,0.657118,0.325364,0.604575
0.671204,0.749922,0.655066,0.329869,0.610270
0.671493,0.751927,0.653014,0.334375,0.615966
0.671783,0.753933,0.650961,0.338880,0.621661
0.672072,0.755938,0.648909,0.343385,0.627356
0.672362,0.757944,0.646857,0.347891,0.633052
0.672651,0.759949,0.644804,0.352396,0.638747
0.672941,0.761955,0.642752,0.356901,0.644443
0.673230,0.763960,0.640700,0.361407,0.650138
0.673519,0.765966,0.638648,0.365912,0.655834
0.673826,0.767941,0.636554,0.370422,0.661453
0.674184,0.769830,0.634341,0.374945,0.666849
0.674603,0.771613,0.631983,0.379483,0.671977
0.675083,0.773291,0.629481,0.384037,0.676835
0.675625,0.774864,0.626834,0.388607,0.681425
0.676228,0.776331,0.624042,0.393193,0.685745
0.676892,0.777693,0.621105,0.397794,0.689797
0.677618,0.778950,0.618024,0.402411,0.693579
0.678405,0.780101,0.614799,0.407043,0.697093
0.679253,0.781148,0.611428,0.411692,0.700337
0.680163,0.782089,0.607913,0.416355,0.703313
0.681134,0.782924,0.604253,0.421035,0.706019
0.682167,0.783655,0.600448,0.425730,0.708457
0.683260,0.784280,0.596499,0.430442,0.710625
0.684416,0.784800,0.592405,0.435168,0.712525
0.685632,0.785214,0.588167,0.439911,0.714155
0.686910,0.785523,0.583783,0.444669,0.715517
0.688232,0.785756,0.579295,0.449438,0.716683
0.689566,0.785970,0.574780,0.454211,0.717800
0.690900,0.786183,0.570265,0.458983,0.718916
0.692234,0.786397,0.565750,0.463755,0.720033
0.693567,0.786610,0.561235,0.468528,0.721149
0.694901,0.786823,0.556720,0.473300,0.722266
0.696235,0.787037,0.552205,0.478073,0.723382
0.697569,0.787250,0.547690,0.482845,0.724499
0.698902,0.787464,0.543175,0.487617,0.725615
0.700236,0.787677,0.538660,0.492390,0.726732
0.701570,0.787890,0.534145,0.497162,0.727848
0.702904,0.788104,0.529630,0.501935,0.728964
0.704237,0.788317,0.525115,0.506707,0.730081
0.705571,0.788531,0.520600,0.511479,0.731197
0.706905,0.788744,0.516085,0.516252,0.732314
0.708239,0.788957,0.511570,0.521024,0.733430
0.709573,0.789171,0.507055,0.525796,0.734547
0.710906,0.789384,0.502540,0.530569,0.735663
0.712240,0.789598,0.498025,0.535341,0.736780
0.713574,0.789811,0.493510,0.540114,0.737896
0.714908,0.790024,0.488995,0.544886,0.739013
0.716241,0.790238,0.484480,0.549658,0.740129
0.717575,0.790451,0.479965,0.554431,0.741246
0.718909,0.790665,0.475450,0.559203,0.742362
0.720243,0.790878,0.470935,0.563976,0.743479
0.721576,0.791091,0.466420,0.568748,0.744595
0.722910,0.791305,0.461905,0.573520,0.745712
0.724244,0.791518,0.457390,0.578293,0.746828
0.725578,0.791732,0.452875,0.583065,0.747945
0.726911,0.791945,0.448360,0.587838,0.749061
0.728245,0.792158,0.443845,0.592610,0.750177
0.729579,0.792372,0.439330,0.597382,0.751294
0.730913,0.792585,0.434815,0.602155,0.752410
0.732246,0.792799,0.430300,0.606927,0.753527
0.733580,0.793012,0.425785,0.611700,0.754643
0.734914,0.793225,0.421270,0.616472,0.755760
0.736248,0.793439,0.416755,0.621244,0.756876
0.737581,0.793652,0.412240,0.626017,0.757993
0.738915,0.793866,0.407725,0.630789,0.759109
0.740249,0.794079,0.403210,0.635561,0.760226
0.741583,0.794292,0.398695,0.640334,0.761342
0.742917,0.794506,0.394180,0.645106,0.762459
0.744250,0.794719,0.389665,0.649879,0.763575
0.745584,0.794933,0.385150,0.654651,0.764692
0.746918,0.795146,0.380635,0.659423,0.765808
0.748252,0.795359,0.376120,0.664196,0.766925
0.749585,0.795573,0.371605,0.668968,0.768041
0.750919,0.795786,0.367090,0.673741,0.769157
0.752253,0.795999,0.362575,0.678513,0.770274
0.753587,0.796213,0.358060,0.683285,0.771390
0.754920,0.796426,0.353545,0.688058,0.772507
0.756254,0.796640,0.349030,0.692830,0.773623
0.757588,0.796853,0.344515,0.697603,0.774740
0.758922,0.797066,0.340000,0.702375,0.775856
0.760255,0.797280,0.335485,0.707147,0.776973
0.761589,0.797493,0.330970,0.711920,0.778089
0.762923,0.797707,0.326455,0.716692,0.779206
0.764257,0.797920,0.321940,0.721464,0.780322
0.765590,0.798133,0.317425,0.726237,0.781439
0.766924,0.798347,0.312910,0.731009,0.782555
0.768258,0.798560,0.308395,0.735782,0.783672
0.769582,0.798749,0.303903,0.740514,0.784726
0.770852,0.798800,0.299537,0.745022,0.785428
0.772044,0.798651,0.295355,0.749205,0.785619
0.773157,0.798301,0.291357,0.753062,0.785299
0.774191,0.797751,0.287543,0.756594,0.784468
0.775148,0.797001,0.283913,0.759799,0.783126
0.776025,0.796051,0.280466,0.762679,0.781273
0.776824,0.794900,0.277204,0.765234,0.778909
0.777545,0.793549,0.274126,0.767463,0.776034
0.778187,0.791997,0.271231,0.769366,0.772648
0.778750,0.790246,0.268521,0.770943,0.768751
0.779235,0.788294,0.265994,0.772195,0.764343
0.779642,0.786142,0.263652,0.773121,0.759424
0.779970,0.783789,0.261493,0.773722,0.753994
0.780219,0.781237,0.259518,0.773997,0.748054
0.780390,0.778484,0.257727,0.773946,0.741602
0.780483,0.775530,0.256120,0.773570,0.734639
0.780506,0.772400,0.254675,0.772906,0.727225
0.780503,0.769204,0.253291,0.772136,0.719644
0.780501,0.766009,0.251907,0.771365,0.712062
0.780498,0.762813,0.250522,0.770594,0.704480
0.780496,0.759617,0.249138,0.769824,0.696899
0.780493,0.756421,0.247754,0.769053,0.689317
0.780491,0.753225,0.246369,0.768282,0.681736
0.780488,0.750030,0.244985,0.767512,0.674154
0.780486,0.746834,0.243601,0.766741,0.666572
0.780483,0.743638,0.242216,0.765971,0.658991
0.780480,0.740442,0.240832,0.765200,0.651409
0.780478,0.737246,0.239448,0.764429,0.643828
0.780475,0.734050,0.238063,0.763659,0.636246
0.780473,0.730855,0.236679,0.762888,0.628665
0.780470,0.727659,0.235295,0.762117,0.621083
0.780468,0.724463,0.233911,0.761347,0.613501
0.780465,0.721267,0.232526,0.760576,0.605920
0.780463,0.718071,0.231142,0.759806,0.598338
0.780460,0.714876,0.229758,0.759035,0.590757
0.780457,0.711680,0.228373,0.758264,0.583175
0.780455,0.708484,0.226989,0.757494,0.575593
0.780452,0.705288,0.225605,0.756723,0.568012
0.780450,0.702092,0.224220,0.755952,0.560430
0.780447,0.698896,0.222836,0.755182,0.552849
0.780445,0.695701,0.221452,0.754411,0.545267
0.780442,0.692505,0.220067,0.753641,0.537686
0.780440,0.689309,0.218683,0.752870,0.530104
0.780437,0.686113,0.217299,0.752099,0.522522
0.780434,0.682917,0.215914,0.751329,0.514941
0.780432,0.679722,0.214530,0.750558,0.507359
0.780429,0.676526,0.213146,0.749787,0.499778
0.780427,0.673330,0.211762,0.749017,0.492196
0.780424,0.670134,0.210377,0.748246,0.484614
0.780422,0.666938,0.208993,0.747476,0.477033
0.780419,0.663742,0.207609,0.746705,0.469451
0.780417,0.660547,0.206224,0.745934,0.461870
0.780414,0.657351,0.204840,0.745164,0.454288
0.780411,0.654155,0.203456,0.744393,0.446707
0.780409,0.650959,0.202071,0.743623,0.439125
0.780406,0.647763,0.200687,0.742852,0.431543
0.780404,0.644567,0.199303,0.742081,0.423962
0.780401,0.641372,0.197918,0.741311,0.416380
0.780399,0.638176,0.196534,0.740540,0.408799
0.780396,0.634980,0.195150,0.739769,0.401217
0.780393,0.631784,0.193766,0.738999,0.393635
0.780391,0.628588,0.192381,0.738228,0.386054
0.780388,0.625393,0.190997,0.737458,0.378472
0.780386,0.622197,0.189613,0.736687,0.370891
0.780383,0.619001,0.188228,0.735916,0.363309
0.780381,0.615805,0.186844,0.735146,0.355727
0.780378,0.612609,0.185460,0.734375,0.348146
0.780376,0.609413,0.184075,0.733604,0.340564
0.780373,0.606218,0.182691,0.732834,0.332983
0.780370,0.603022,0.181307,0.732063,0.325401
0.780368,0.599826,0.179922,0.731293,0.317820
0.780365,0.596630,0.178538,0.730522,0.310238
0.780363,0.593434,0.177154,0.729751,0.302656
0.780360,0.590239,0.175769,0.728981,0.295075
0.780358,0.587043,0.174385,0.728210,0.287493
0.780355,0.583847,0.173001,0.727439,0.279912
0.780353,0.580651,0.171617,0.726669,0.272330
0.780350,0.577455,0.170232,0.725898,0.264748
0.780397,0.574455,0.169039,0.725003,0.257503
0.780539,0.571836,0.168221,0.723864,0.250914
0.780779,0.569599,0.167778,0.722482,0.244982
0.781114,0.567744,0.167710,0.720856,0.239708
0.781546,0.566272,0.168017,0.718987,0.235090
0.782073,0.565181,0.168698,0.716874,0.231130
0.782698,0.564472,0.169754,0.714517,0.227827
0.783418,0.564145,0.171185,0.711916,0.225181
0.784235,0.564200,0.172991,0.709073,0.223192
0.785147,0.564637,0.175172,0.705985,0.221861
0.786157,0.565456,0.177727,0.702654,0.221186
0.787262,0.566657,0.180658,0.699079,0.221169
0.788464,0.568241,0.183963,0.695261,0.221808
0.789761,0.570206,0.187643,0.691199,0.223105
0.791156,0.572552,0.191698,0.686893,0.225059
0.792646,0.575281,0.196128,0.682344,0.227670
0.794233,0.578392,0.200932,0.677551,0.230938
0.795868,0.581698,0.205928,0.672634,0.234542
0.797504,0.585004,0.210924,0.667716,0.238146
0.799140,0.588310,0.215920,0.662799,0.241750
0.800776,0.591617,0.220916,0.657882,0.245354
0.802412,0.594923,0.225913,0.652965,0.248958
0.804048,0.598229,0.230909,0.648047,0.252562
0.805683,0.601535,0.235905,0.643130,0.256166
0.807319,0.604841,0.240901,0.638213,0.259769
0.808955,0.608147,0.245897,0.633295,0.263373
0.810591,0.611453,0.250893,0.628378,0.266977
0.812227,0.614759,0.255889,0.623461,0.270581
0.813862,0.618065,0.260885,0.618544,0.274185
0.815498,0.621371,0.265881,0.613626,0.277789
0.817134,0.624677,0.270877,0.608709,0.281393
0.818770,0.627983,0.275873,0.603792,0.284997
0.820406,0.631289,0.280869,0.598874,0.288601
0.822041,0.634595,0.285865,0.593957,0.292205
0.823677,0.637901,0.290861,0.589040,0.295808
0.825313,0.641207,0.295858,0.584123,0.299412
0.826949,0.644513,0.300854,0.579205,0.303016
0.828585,0.647820,0.305850,0.574288,0.306620
0.830221,0.651126,0.310846,0.569371,0.310224
0.831856,0.654432,0.315842,0.564453,0.313828
0.833492,0.657738,0.320838,0.559536,0.317432
0.835128,0.661044,0.325834,0.554619,0.321036
0.836764,0.664350,0.330830,0.549701,0.324640
0.838400,0.667656,0.335826,0.544784,0.328244
0.840035,0.670962,0.340822,0.539867,0.331847
0.841671,0.674268,0.345818,0.534950,0.335451
0.843307,0.677574,0.350814,0.530032,0.339055
0.844943,0.680880,0.355810,0.525115,0.342659
0.846579,0.684186,0.360807,0.520198,0.346263
