density,loudness,brightness,roughness,speed
0.476250,0.406225,0.733443,0.864993,0.516312
0.475625,0.407417,0.731906,0.859338,0.517695
0.474931,0.408742,0.730197,0.853054,0.519231
0.474168,0.410199,0.728318,0.846142,0.520921
0.473335,0.411789,0.726267,0.838602,0.522764
0.472434,0.413511,0.724046,0.830433,0.524761
0.471462,0.415365,0.721654,0.821636,0.526912
0.470421,0.417352,0.719091,0.812211,0.529216
0.469311,0.419472,0.716357,0.802157,0.531674
0.468132,0.421723,0.713453,0.791475,0.534285
0.466952,0.423975,0.710548,0.780793,0.536897
0.465773,0.426227,0.707644,0.770111,0.539508
0.464593,0.428479,0.704739,0.759429,0.542120
0.463414,0.430731,0.701834,0.748747,0.544731
0.462234,0.432983,0.698930,0.738065,0.547343
0.461055,0.435235,0.696025,0.727383,0.549954
0.459875,0.437487,0.693121,0.716701,0.552565
0.458696,0.439739,0.690216,0.706019,0.555177
0.457516,0.441991,0.687311,0.695337,0.557788
0.456337,0.444242,0.684407,0.684655,0.560400
0.455157,0.446494,0.681502,0.673973,0.563011
0.453978,0.448746,0.678597,0.663291,0.565623
0.452798,0.450998,0.675693,0.652609,0.568234
0.451619,0.453250,0.672788,0.641927,0.570846
0.450439,0.455502,0.669884,0.631245,0.573457
0.449260,0.457754,0.666979,0.620563,0.576069
0.448080,0.460006,0.664074,0.609880,0.578680
0.446901,0.462258,0.661170,0.599198,0.581291
0.445722,0.464510,0.658265,0.588516,0.583903
0.444542,0.466761,0.655360,0.577834,0.586514
0.443363,0.469013,0.652456,0.567152,0.589126
0.442183,0.471265,0.649551,0.556470,0.591737
0.441004,0.473517,0.646647,0.545788,0.594349
0.439824,0.475769,0.643742,0.535106,0.596960
0.438645,0.478021,0.640837,0.524424,0.599572
0.437465,0.480273,0.637933,0.513742,0.602183
0.436286,0.482525,0.635028,0.503060,0.604794
0.435106,0.484777,0.632124,0.492378,0.607406
0.433927,0.487028,0.629219,0.481696,0.610017
0.432747,0.489280,0.626314,0.471014,0.612629
0.431568,0.491532,0.623410,0.460332,0.615240
0.430388,0.493784,0.620505,0.449650,0.617852
0.429209,0.496036,0.617600,0.438968,0.620463
0.428029,0.498288,0.614696,0.428286,0.623075
0.426850,0.500540,0.611791,0.417604,0.625686
0.425670,0.502792,0.608887,0.406922,0.628298
0.424491,0.505044,0.605982,0.396240,0.630909
0.423311,0.507296,0.603077,0.385558,0.633520
0.422132,0.509547,0.600173,0.374876,0.636132
0.420952,0.511799,0.597268,0.364193,0.638743
0.419773,0.514051,0.594364,0.353511,0.641355
0.418593,0.516303,0.591459,0.342829,0.643966
0.417414,0.518555,0.588554,0.332147,0.646578
0.416234,0.520807,0.585650,0.321465,0.649189
0.415055,0.523059,0.582745,0.310783,0.651801
0.413875,0.525311,0.579840,0.300101,0.654412
0.412696,0.527563,0.576936,0.289419,0.657024
0.411516,0.529815,0.574031,0.278737,0.659635
0.410337,0.532066,0.571127,0.268055,0.662246
0.409157,0.534318,0.568222,0.257373,0.664858
0.407978,0.536570,0.565317,0.246691,0.667469
0.406798,0.538822,0.562413,0.236009,0.670081
0.405619,0.541074,0.559508,0.225327,0.672692
0.404439,0.543326,0.556603,0.214645,0.675304
0.403260,0.545578,0.553699,0.203963,0.677915
0.402080,0.547830,0.550794,0.193281,0.680527
0.400901,0.550082,0.547890,0.182599,0.683138
0.399721,0.552333,0.544985,0.171917,0.685749
0.398827,0.554579,0.542404,0.161807,0.688288
0.398250,0.556816,0.540182,0.152333,0.690745
0.397990,0.559046,0.538319,0.143495,0.693120
0.398046,0.561269,0.536815,0.135293,0.695414
0.398420,0.563484,0.535670,0.127726,0.697627
0.399111,0.565691,0.534885,0.120796,0.699758
0.400118,0.567891,0.534459,0.114501,0.701808
0.401443,0.570083,0.534392,0.108842,0.703777
0.403085,0.572268,0.534684,0.103819,0.705664
0.405043,0.574445,0.535336,0.099432,0.707470
0.407319,0.576615,0.536346,0.095680,0.709195
0.409911,0.578777,0.537716,0.092565,0.710838
0.412821,0.580932,0.539445,0.090085,0.712400
0.416047,0.583079,0.541534,0.088242,0.713880
0.419591,0.585218,0.543981,0.087034,0.715279
0.423451,0.587350,0.546788,0.086461,0.716597
0.427629,0.589475,0.549954,0.086525,0.717833
0.431838,0.591599,0.553156,0.086652,0.719062
0.436047,0.593722,0.556357,0.086780,0.720290
0.440256,0.595846,0.559559,0.086907,0.721518
0.444465,0.597970,0.562761,0.087034,0.722746
0.448674,0.600093,0.565963,0.087162,0.723974
0.452883,0.602217,0.569165,0.087289,0.725203
0.457092,0.604341,0.572366,0.087416,0.726431
0.461301,0.606464,0.575568,0.087544,0.727659
0.465511,0.608588,0.578770,0.087671,0.728887
0.469720,0.610712,0.581972,0.087798,0.730115
0.473929,0.612836,0.585174,0.087926,0.731344
0.478138,0.614959,0.588375,0.088053,0.732572
0.482347,0.617083,0.591577,0.088180,0.733800
0.486556,0.619207,0.594779,0.088307,0.735028
0.490765,0.621330,0.597981,0.088435,0.736256
0.494974,0.623454,0.601183,0.088562,0.737485
0.499183,0.625578,0.604384,0.088689,0.738713
0.503393,0.627701,0.607586,0.088817,0.739941
0.507602,0.629825,0.610788,0.088944,0.741169
0.511811,0.631949,0.613990,0.089071,0.742397
0.516020,0.634073,0.617192,0.089199,0.743626
0.520229,0.636196,0.620394,0.089326,0.744854
0.524438,0.638320,0.623595,0.089453,0.746082
0.528647,0.640444,0.626797,0.089581,0.747310
0.532856,0.642567,0.629999,0.089708,0.748539
0.537065,0.644691,0.633201,0.089835,0.749767
0.541275,0.646815,0.636403,0.089962,0.750995
0.545484,0.648938,0.639604,0.090090,0.752223
0.549693,0.651062,0.642806,0.090217,0.753451
0.553902,0.653186,0.646008,0.090344,0.754680
0.558111,0.655310,0.649210,0.090472,0.755908
0.562320,0.657433,0.652412,0.090599,0.757136
0.566529,0.659557,0.655613,0.090726,0.758364
0.570738,0.661681,0.658815,0.090854,0.759592
0.574948,0.663804,0.662017,0.090981,0.760821
0.579157,0.665928,0.665219,0.091108,0.762049
0.583366,0.668052,0.668421,0.091236,0.763277
0.587575,0.670175,0.671622,0.091363,0.764505
0.591784,0.672299,0.674824,0.091490,0.765733
0.595993,0.674423,0.678026,0.091617,0.766962
0.600202,0.676547,0.681228,0.091745,0.768190
0.604411,0.678670,0.684430,0.091872,0.769418
0.608620,0.680794,0.687632,0.091999,0.770646
0.612830,0.682918,0.690833,0.092127,0.771874
0.617039,0.685041,0.694035,0.092254,0.773103
0.621248,0.687165,0.697237,0.092381,0.774331
0.625457,0.689289,0.700439,0.092509,0.775559
0.629666,0.691412,0.703641,0.092636,0.776787
0.633875,0.693536,0.706842,0.092763,0.778015
0.638084,0.695660,0.710044,0.092891,0.779244
0.642293,0.697784,0.713246,0.093018,0.780472
0.646502,0.699907,0.716448,0.093145,0.781700
0.650712,0.702031,0.719650,0.093272,0.782928
0.654921,0.704155,0.722851,0.093400,0.784157
0.659130,0.706278,0.726053,0.093527,0.785385
0.663339,0.708402,0.729255,0.093654,0.786613
0.667548,0.710526,0.732457,0.093782,0.787841
0.671757,0.712650,0.735659,0.093909,0.789069
0.675489,0.714396,0.738631,0.094022,0.790267
0.678624,0.715671,0.741318,0.094118,0.791425
0.681161,0.716474,0.743717,0.094196,0.792545
0.683103,0.716805,0.745831,0.094257,0.793626
0.684447,0.716665,0.747658,0.094300,0.794668
0.685194,0.716053,0.749198,0.094325,0.795672
0.685345,0.714970,0.750452,0.094333,0.796637
0.684899,0.713414,0.751420,0.094323,0.797563
0.683855,0.711388,0.752101,0.094296,0.798450
0.682215,0.708889,0.752496,0.094251,0.799299
0.679979,0.705919,0.752604,0.094189,0.800109
0.677145,0.702477,0.752426,0.094109,0.800880
0.673715,0.698564,0.751961,0.094012,0.801613
0.669687,0.694179,0.751210,0.093897,0.802307
0.665063,0.689322,0.750173,0.093764,0.802962
0.659842,0.683994,0.748849,0.093614,0.803578
0.654024,0.678194,0.747239,0.093446,0.804156
0.648087,0.672300,0.745571,0.093275,0.804726
0.642150,0.666405,0.743903,0.093104,0.805296
0.636212,0.660511,0.742236,0.092932,0.805866
0.630275,0.654617,0.740568,0.092761,0.806435
0.624338,0.648723,0.738901,0.092590,0.807005
0.618401,0.642828,0.737233,0.092419,0.807575
0.612463,0.636934,0.735565,0.092247,0.808145
0.606526,0.631040,0.733898,0.092076,0.808715
0.600589,0.625145,0.732230,0.091905,0.809285
0.594652,0.619251,0.730563,0.091734,0.809855
0.588714,0.613357,0.728895,0.091562,0.810425
0.582777,0.607463,0.727227,0.091391,0.810995
0.576840,0.601568,0.725560,0.091220,0.811565
0.570903,0.595674,0.723892,0.091049,0.812134
0.564965,0.589780,0.722225,0.090877,0.812704
0.559028,0.583885,0.720557,0.090706,0.813274
0.553091,0.577991,0.718889,0.090535,0.813844
0.547154,0.572097,0.717222,0.090364,0.814414
0.541216,0.566202,0.715554,0.090192,0.814984
0.535279,0.560308,0.713887,0.090021,0.815554
0.529342,0.554414,0.712219,0.089850,0.816124
0.523405,0.548520,0.710551,0.089679,0.816694
0.517468,0.542625,0.708884,0.089508,0.817264
0.511530,0.536731,0.707216,0.089336,0.817833
0.505593,0.530837,0.705549,0.089165,0.818403
0.499656,0.524942,0.703881,0.088994,0.818973
0.493719,0.519048,0.702214,0.088823,0.819543
0.487781,0.513154,0.700546,0.088651,0.820113
0.481844,0.507260,0.698878,0.088480,0.820683
0.475907,0.501365,0.697211,0.088309,0.821253
0.469970,0.495471,0.695543,0.088138,0.821823
0.464032,0.489577,0.693876,0.087966,0.822393
0.458095,0.483682,0.692208,0.087795,0.822963
0.452158,0.477788,0.690540,0.087624,0.823533
0.446221,0.471894,0.688873,0.087453,0.824102
0.440283,0.465999,0.687205,0.087281,0.824672
0.434346,0.460105,0.685538,0.087110,0.825242
0.428409,0.454211,0.683870,0.086939,0.825812
0.422472,0.448317,0.682202,0.086768,0.826382
0.416534,0.442422,0.680535,0.086596,0.826952
0.410597,0.436528,0.678867,0.086425,0.827522
0.404660,0.430634,0.677200,0.086254,0.828092
0.398723,0.424739,0.675532,0.086083,0.828662
0.392785,0.418845,0.673864,0.085911,0.829232
0.386848,0.412951,0.672197,0.085740,0.829801
0.380911,0.407056,0.670529,0.085569,0.830371
0.374974,0.401162,0.668862,0.085398,0.830941
0.369036,0.395268,0.667194,0.085227,0.831511
0.363099,0.389374,0.665526,0.085055,0.832081
0.357162,0.383479,0.663859,0.084884,0.832651
0.351225,0.377585,0.662191,0.084713,0.833221
0.345288,0.371691,0.660524,0.084542,0.833791
0.339350,0.365796,0.658856,0.084370,0.834361
0.333413,0.359902,0.657188,0.084199,0.834931
0.327476,0.354008,0.655521,0.084028,0.835500
0.321539,0.348114,0.653853,0.083857,0.836070
0.315601,0.342219,0.652186,0.083685,0.836640
0.309664,0.336325,0.650518,0.083514,0.837210
0.304117,0.330908,0.648738,0.083675,0.837701
0.299127,0.326175,0.646797,0.084312,0.838078
0.294694,0.322123,0.644696,0.085423,0.838342
0.290818,0.318754,0.642434,0.087009,0.838493
0.287500,0.316068,0.640011,0.089071,0.838531
0.284738,0.314065,0.637428,0.091607,0.838456
0.282534,0.312744,0.634683,0.094619,0.838267
0.280887,0.312105,0.631779,0.098105,0.837965
0.279797,0.312150,0.628713,0.102067,0.837550
0.279265,0.312876,0.625487,0.106504,0.837022
0.279289,0.314286,0.622100,0.111415,0.836380
0.279871,0.316378,0.618553,0.116802,0.835626
0.281010,0.319152,0.614845,0.122663,0.834758
0.282706,0.322609,0.610976,0.129000,0.833776
0.284959,0.326749,0.606946,0.135812,0.832682
0.287770,0.331571,0.602756,0.143099,0.831474
0.291137,0.337076,0.598406,0.150861,0.830154
0.294672,0.342785,0.594007,0.158765,0.828799
0.298207,0.348495,0.589608,0.166669,0.827444
0.301742,0.354205,0.585209,0.174574,0.826089
0.305276,0.359914,0.580810,0.182478,0.824734
0.308811,0.365624,0.576410,0.190382,0.823380
0.312346,0.371333,0.572011,0.198287,0.822025
0.315881,0.377043,0.567612,0.206191,0.820670
0.319415,0.382753,0.563213,0.214095,0.819315
0.322950,0.388462,0.558814,0.222000,0.817960
0.326485,0.394172,0.554415,0.229904,0.816606
0.330020,0.399882,0.550016,0.237808,0.815251
0.333554,0.405591,0.545617,0.245713,0.813896
0.337089,0.411301,0.541218,0.253617,0.812541
0.340624,0.417010,0.536819,0.261521,0.811186
0.344159,0.422720,0.532420,0.269426,0.809832
0.347694,0.428430,0.528021,0.277330,0.808477
0.351228,0.434139,0.523622,0.285234,0.807122
0.354763,0.439849,0.519223,0.293139,0.805767
0.358298,0.445558,0.514824,0.301043,0.804412
0.361833,0.451268,0.510425,0.308947,0.803058
0.365367,0.456978,0.506026,0.316852,0.801703
0.368902,0.462687,0.501627,0.324756,0.800348
0.372437,0.468397,0.497228,0.332660,0.798993
0.375972,0.474106,0.492829,0.340565,0.797638
0.379506,0.479816,0.488430,0.348469,0.796284
0.383041,0.485526,0.484031,0.356374,0.794929
0.386576,0.491235,0.479632,0.364278,0.793574
0.390111,0.496945,0.475233,0.372182,0.792219
0.393645,0.502654,0.470834,0.380087,0.790864
0.397180,0.508364,0.466435,0.387991,0.789510
0.400715,0.514074,0.462036,0.395895,0.788155
0.404250,0.519783,0.457637,0.403800,0.786800
0.407784,0.525493,0.453238,0.411704,0.785445
0.411319,0.531202,0.448839,0.419608,0.784090
0.414854,0.536912,0.444440,0.427513,0.782735
0.418389,0.542622,0.440041,0.435417,0.781381
0.421923,0.548331,0.435642,0.443321,0.780026
0.425458,0.554041,0.431243,0.451226,0.778671
0.428993,0.559750,0.426844,0.459130,0.777316
0.432528,0.565460,0.422445,0.467034,0.775961
0.436063,0.571170,0.418046,0.474939,0.774607
0.439597,0.576879,0.413647,0.482843,0.773252
0.443132,0.582589,0.409248,0.490747,0.771897
0.446667,0.588298,0.404849,0.498652,0.770542
0.450202,0.594008,0.400450,0.506556,0.769187
0.453736,0.599718,0.396051,0.514460,0.767833
0.457271,0.605427,0.391652,0.522365,0.766478
0.460806,0.611137,0.387253,0.530269,0.765123
0.464341,0.616846,0.382854,0.538173,0.763768
0.467875,0.622556,0.378455,0.546078,0.762413
0.471410,0.628266,0.374056,0.553982,0.761059
0.474945,0.633975,0.369657,0.561886,0.759704
0.478480,0.639685,0.365258,0.569791,0.758349
0.482014,0.645395,0.360859,0.577695,0.756994
0.485549,0.651104,0.356460,0.585599,0.755639
0.489084,0.656814,0.352061,0.593504,0.754285
0.492619,0.662523,0.347662,0.601408,0.752930
0.496153,0.668233,0.343263,0.609312,0.751575
0.499390,0.673549,0.338963,0.617027,0.750030
0.502129,0.678210,0.334827,0.624424,0.748166
0.504371,0.682216,0.330856,0.631505,0.745986
0.506116,0.685566,0.327049,0.638270,0.743487
0.507364,0.688261,0.323407,0.644717,0.740671
0.508115,0.690301,0.319929,0.650848,0.737537
0.508368,0.691685,0.316616,0.656662,0.734086
0.508125,0.692414,0.313468,0.662159,0.730316
0.507384,0.692487,0.310484,0.667340,0.726229
0.506146,0.691905,0.307664,0.672204,0.721825
0.504411,0.690668,0.305009,0.676751,0.717102
0.502178,0.688775,0.302519,0.680982,0.712062
0.499449,0.686227,0.300193,0.684896,0.706705
0.496222,0.683024,0.298032,0.688493,0.701029
0.492498,0.679165,0.296035,0.691774,0.695036
0.488277,0.674651,0.294203,0.694737,0.688725
0.483559,0.669481,0.292535,0.697384,0.682097
0.478642,0.664050,0.290933,0.699905,0.675341
0.473725,0.658618,0.289332,0.702425,0.668586
0.468808,0.653186,0.287730,0.704946,0.661830
0.463891,0.647755,0.286128,0.707466,0.655074
0.458974,0.642323,0.284526,0.709986,0.648319
0.454057,0.636891,0.282924,0.712507,0.641563
0.449140,0.631460,0.281322,0.715027,0.634808
0.444223,0.626028,0.279720,0.717548,0.628052
0.439306,0.620596,0.278119,0.720068,0.621297
0.434389,0.615165,0.276517,0.722588,0.614541
0.429472,0.609733,0.274915,0.725109,0.607785
0.424555,0.604301,0.273313,0.727629,0.601030
0.419638,0.598870,0.271711,0.730150,0.594274
0.414721,0.593438,0.270109,0.732670,0.587519
0.409804,0.588006,0.268508,0.735190,0.580763
0.404887,0.582575,0.266906,0.737711,0.574008
0.399970,0.577143,0.265304,0.740231,0.567252
0.395053,0.571711,0.263702,0.742752,0.560496
0.390136,0.566280,0.262100,0.745272,0.553741
0.385219,0.560848,0.260498,0.747792,0.546985
0.380301,0.555416,0.258896,0.750313,0.540230
0.375384,0.549985,0.257295,0.752833,0.533474
0.370467,0.544553,0.255693,0.755354,0.526719
0.365550,0.539121,0.254091,0.757874,0.519963
0.360633,0.533690,0.252489,0.760394,0.513207
0.355716,0.528258,0.250887,0.762915,0.506452
0.350799,0.522826,0.249285,0.765435,0.499696
0.345882,0.517395,0.247683,0.767956,0.492941
0.340965,0.511963,0.246082,0.770476,0.486185
0.336048,0.506532,0.244480,0.772997,0.479430
0.331131,0.501100,0.242878,0.775517,0.472674
0.326214,0.495668,0.241276,0.778037,0.465918
0.321297,0.490237,0.239674,0.780558,0.459163
0.316380,0.484805,0.238072,0.783078,0.452407
0.311463,0.479373,0.236471,0.785599,0.445652
0.306546,0.473942,0.234869,0.788119,0.438896
0.301629,0.468510,0.233267,0.790639,0.432141
0.296712,0.463078,0.231665,0.793160,0.425385
0.291795,0.457647,0.230063,0.795680,0.418629
0.286878,0.452215,0.228461,0.798201,0.411874
0.281961,0.446783,0.226859,0.800721,0.405118
0.277044,0.441352,0.225258,0.803241,0.398363
0.272127,0.435920,0.223656,0.805762,0.391607
0.267210,0.430488,0.222054,0.808282,0.384852
0.262293,0.425057,0.220452,0.810803,0.378096
0.257376,0.419625,0.218850,0.813323,0.371340
0.252459,0.414193,0.217248,0.815843,0.364585
0.247542,0.408762,0.215646,0.818364,0.357829
0.242625,0.403330,0.214045,0.820884,0.351074
0.237708,0.397898,0.212443,0.823405,0.344318
0.232791,0.392467,0.210841,0.825925,0.337563
0.227874,0.387035,0.209239,0.828445,0.330807
0.222957,0.381603,0.207637,0.830966,0.324051
0.218040,0.376172,0.206035,0.833486,0.317296
0.213123,0.370740,0.204434,0.836007,0.310540
0.208206,0.365308,0.202832,0.838527,0.303785
0.203289,0.359877,0.201230,0.841047,0.297029
0.198372,0.354445,0.199628,0.843568,0.290274
0.193688,0.349301,0.198127,0.845699,0.283669
0.189473,0.344733,0.196827,0.847053,0.277365
0.185726,0.340740,0.195728,0.847630,0.271363
0.182446,0.337322,0.194831,0.847428,0.265663
0.179634,0.334480,0.194134,0.846449,0.260264
0.177291,0.332214,0.193639,0.844693,0.255166
0.175414,0.330523,0.193346,0.842159,0.250370
0.174006,0.329408,0.193253,0.838847,0.245875
0.173066,0.328868,0.193362,0.834758,0.241682
0.172593,0.328903,0.193672,0.829891,0.237790
0.172589,0.329515,0.194183,0.824246,0.234199
0.173052,0.330701,0.194896,0.817824,0.230910
0.173983,0.332463,0.195809,0.810624,0.227923
0.175382,0.334801,0.196924,0.802646,0.225237
0.177248,0.337714,0.198241,0.793891,0.222852
0.179583,0.341203,0.199758,0.784358,0.220769
0.182385,0.345267,0.201477,0.774048,0.218987
0.185421,0.349619,0.203296,0.763349,0.217356
0.188458,0.353970,0.205115,0.752649,0.215725
0.191494,0.358322,0.206935,0.741950,0.214094
0.194530,0.362674,0.208754,0.731251,0.212462
0.197566,0.367026,0.210573,0.720552,0.210831
0.200603,0.371378,0.212393,0.709853,0.209200
0.203639,0.375730,0.214212,0.699153,0.207569
0.206675,0.380082,0.216032,0.688454,0.205938
0.209712,0.384433,0.217851,0.677755,0.204307
0.212748,0.388785,0.219670,0.667056,0.202676
0.215784,0.393137,0.221490,0.656356,0.201045
0.218820,0.397489,0.223309,0.645657,0.199414
0.221857,0.401841,0.225128,0.634958,0.197783
0.224893,0.406193,0.226948,0.624259,0.196152
0.227929,0.410545,0.228767,0.613560,0.194520
0.230965,0.414896,0.230586,0.602860,0.192889
0.234002,0.419248,0.232406,0.592161,0.191258
0.237038,0.423600,0.234225,0.581462,0.189627
0.240074,0.427952,0.236044,0.570763,0.187996
0.243110,0.432304,0.237864,0.560063,0.186365
0.246147,0.436656,0.239683,0.549364,0.184734
0.249183,0.441008,0.241502,0.538665,0.183103
0.252219,0.445360,0.243322,0.527966,0.181472
0.255256,0.449711,0.245141,0.517267,0.179841
0.258292,0.454063,0.246961,0.506567,0.178210
0.261328,0.458415,0.248780,0.495868,0.176578
0.264364,0.462767,0.250599,0.485169,0.174947
0.267401,0.467119,0.252419,0.474470,0.173316
0.270437,0.471471,0.254238,0.463771,0.171685
0.273473,0.475823,0.256057,0.453071,0.170054
0.276509,0.480174,0.257877,0.442372,0.168423
0.279546,0.484526,0.259696,0.431673,0.166792
0.282582,0.488878,0.261515,0.420974,0.165161
0.285618,0.493230,0.263335,0.410274,0.163530
0.288654,0.497582,0.265154,0.399575,0.161899
0.291691,0.501934,0.266973,0.388876,0.160267
0.294727,0.506286,0.268793,0.378177,0.158636
0.297763,0.510637,0.270612,0.367478,0.157005
0.300800,0.514989,0.272431,0.356778,0.155374
0.303836,0.519341,0.274251,0.346079,0.153743
0.306872,0.523693,0.276070,0.335380,0.152112
0.309908,0.528045,0.277889,0.324681,0.150481
0.312945,0.532397,0.279709,0.313981,0.148850
0.315981,0.536749,0.281528,0.303282,0.147219
0.319017,0.541100,0.283348,0.292583,0.145588
0.322053,0.545452,0.285167,0.281884,0.143957
0.325090,0.549804,0.286986,0.271185,0.142325
0.328126,0.554156,0.288806,0.260485,0.140694
