density,loudness,brightness,roughness,speed
0.369589,0.664886,0.570585,0.364270,0.561322
0.368744,0.662643,0.573323,0.366861,0.563544
0.367805,0.660150,0.576365,0.369740,0.566012
0.366772,0.657409,0.579711,0.372907,0.568727
0.365646,0.654418,0.583361,0.376362,0.571689
0.364425,0.651178,0.587316,0.380104,0.574897
0.363111,0.647688,0.591575,0.384135,0.578353
0.361702,0.643949,0.596137,0.388453,0.582055
0.360200,0.639961,0.601005,0.393059,0.586004
0.358604,0.635724,0.606176,0.397953,0.590200
0.357008,0.631487,0.611347,0.402847,0.594395
0.355411,0.627250,0.616518,0.407741,0.598591
0.353815,0.623013,0.621690,0.412635,0.602787
0.352219,0.618776,0.626861,0.417529,0.606983
0.350623,0.614538,0.632032,0.422424,0.611179
0.349027,0.610301,0.637203,0.427318,0.615375
0.347431,0.606064,0.642375,0.432212,0.619570
0.345834,0.601827,0.647546,0.437106,0.623766
0.344238,0.597590,0.652717,0.442000,0.627962
0.342642,0.593352,0.657888,0.446894,0.632158
0.341046,0.589115,0.663060,0.451788,0.636354
0.339450,0.584878,0.668231,0.456682,0.640549
0.337854,0.580641,0.673402,0.461576,0.644745
0.336257,0.576404,0.678573,0.466470,0.648941
0.334661,0.572166,0.683745,0.471364,0.653137
0.333065,0.567929,0.688916,0.476258,0.657333
0.331469,0.563692,0.694087,0.481152,0.661529
0.329873,0.559455,0.699258,0.486047,0.665724
0.328277,0.555218,0.704430,0.490941,0.669920
0.326680,0.550981,0.709601,0.495835,0.674116
0.325084,0.546743,0.714772,0.500729,0.678312
0.323488,0.542506,0.719943,0.505623,0.682508
0.321892,0.538269,0.725115,0.510517,0.686704
0.320296,0.534032,0.730286,0.515411,0.690899
0.318700,0.529795,0.735457,0.520305,0.695095
0.317103,0.525557,0.740628,0.525199,0.699291
0.315507,0.521320,0.745800,0.530093,0.703487
0.313911,0.517083,0.750971,0.534987,0.707683
0.312315,0.512846,0.756142,0.539881,0.711879
0.310719,0.508609,0.761313,0.544776,0.716074
0.309123,0.504372,0.766485,0.549670,0.720270
0.307526,0.500134,0.771656,0.554564,0.724466
0.305930,0.495897,0.776827,0.559458,0.728662
0.304334,0.491660,0.781998,0.564352,0.732858
0.302738,0.487423,0.787170,0.569246,0.737053
0.301142,0.483186,0.792341,0.574140,0.741249
0.299546,0.478948,0.797512,0.579034,0.745445
0.297950,0.474711,0.802683,0.583928,0.749641
0.296353,0.470474,0.807855,0.588822,0.753837
0.294757,0.466237,0.813026,0.593716,0.758033
0.293161,0.462000,0.818197,0.598610,0.762228
0.291565,0.457762,0.823368,0.603504,0.766424
0.289969,0.453525,0.828540,0.608399,0.770620
0.288373,0.449288,0.833711,0.613293,0.774816
0.286776,0.445051,0.838882,0.618187,0.779012
0.285180,0.440814,0.844053,0.623081,0.783208
0.283584,0.436577,0.849225,0.627975,0.787403
0.281988,0.432339,0.854396,0.632869,0.791599
0.280392,0.428102,0.859567,0.637763,0.795795
0.278796,0.423865,0.864738,0.642657,0.799991
0.277199,0.419628,0.869910,0.647551,0.804187
0.275603,0.415391,0.875081,0.652445,0.808383
0.274007,0.411153,0.880252,0.657339,0.812578
0.272411,0.406916,0.885423,0.662233,0.816774
0.270815,0.402679,0.890595,0.667128,0.820970
0.269219,0.398442,0.895766,0.672022,0.825166
0.267622,0.394205,0.900937,0.676916,0.829362
0.266026,0.389967,0.906108,0.681810,0.833557
0.264430,0.385730,0.911280,0.686704,0.837753
0.263340,0.381845,0.915623,0.691264,0.841743
0.262756,0.378310,0.919138,0.695489,0.845528
0.262678,0.375127,0.921825,0.699381,0.849106
0.263107,0.372296,0.923683,0.702938,0.852479
0.264041,0.369816,0.924714,0.706161,0.855646
0.265482,0.367688,0.924916,0.709050,0.858608
0.267429,0.365911,0.924290,0.711605,0.861363
0.269882,0.364485,0.922837,0.713826,0.863913
0.272841,0.363411,0.920554,0.715712,0.866257
0.276306,0.362688,0.917444,0.717264,0.868395
0.280278,0.362317,0.913506,0.718482,0.870328
0.284755,0.362297,0.908740,0.719366,0.872055
0.289739,0.362629,0.903145,0.719915,0.873576
0.295229,0.363312,0.896722,0.720131,0.874891
0.301225,0.364346,0.889471,0.720012,0.876001
0.307727,0.365732,0.881392,0.719559,0.876905
0.314735,0.367470,0.872485,0.718772,0.877603
0.321743,0.369207,0.863578,0.717985,0.878301
0.328751,0.370945,0.854671,0.717198,0.878999
0.335760,0.372682,0.845764,0.716410,0.879697
0.342768,0.374420,0.836856,0.715623,0.880395
0.349776,0.376157,0.827949,0.714836,0.881093
0.356784,0.377895,0.819042,0.714049,0.881791
0.363792,0.379632,0.810135,0.713262,0.882489
0.370801,0.381369,0.801228,0.712475,0.883187
0.377809,0.383107,0.792320,0.711687,0.883885
0.384817,0.384844,0.783413,0.710900,0.884584
0.391825,0.386582,0.774506,0.710113,0.885282
0.398834,0.388319,0.765599,0.709326,0.885980
0.405842,0.390057,0.756692,0.708539,0.886678
0.412850,0.391794,0.747785,0.707751,0.887376
0.419858,0.393532,0.738877,0.706964,0.888074
0.426867,0.395269,0.729970,0.706177,0.888772
0.433875,0.397006,0.721063,0.705390,0.889470
0.440883,0.398744,0.712156,0.704603,0.890168
0.447891,0.400481,0.703249,0.703816,0.890866
0.454899,0.402219,0.694341,0.703028,0.891564
0.461908,0.403956,0.685434,0.702241,0.892263
0.468916,0.405694,0.676527,0.701454,0.892961
0.475924,0.407431,0.667620,0.700667,0.893659
0.482932,0.409169,0.658713,0.699880,0.894357
0.489941,0.410906,0.649806,0.699093,0.895055
0.496949,0.412643,0.640898,0.698305,0.895753
0.503957,0.414381,0.631991,0.697518,0.896451
0.510965,0.416118,0.623084,0.696731,0.897149
0.517974,0.417856,0.614177,0.695944,0.897847
0.524982,0.419593,0.605270,0.695157,0.898545
0.531990,0.421331,0.596362,0.694370,0.899243
0.538998,0.423068,0.587455,0.693582,0.899941
0.546006,0.424806,0.578548,0.692795,0.900640
0.553015,0.426543,0.569641,0.692008,0.901338
0.560023,0.428280,0.560734,0.691221,0.902036
0.567031,0.430018,0.551827,0.690434,0.902734
0.574039,0.431755,0.542919,0.689646,0.903432
0.581048,0.433493,0.534012,0.688859,0.904130
0.588056,0.435230,0.525105,0.688072,0.904828
0.595064,0.436968,0.516198,0.687285,0.905526
0.602072,0.438705,0.507291,0.686498,0.906224
0.609081,0.440443,0.498384,0.685711,0.906922
0.616089,0.442180,0.489476,0.684923,0.907620
0.623097,0.443918,0.480569,0.684136,0.908318
0.630105,0.445655,0.471662,0.683349,0.909017
0.637113,0.447392,0.462755,0.682562,0.909715
0.644122,0.449130,0.453848,0.681775,0.910413
0.651130,0.450867,0.444940,0.680988,0.911111
0.658138,0.452605,0.436033,0.680200,0.911809
0.665146,0.454342,0.427126,0.679413,0.912507
0.672155,0.456080,0.418219,0.678626,0.913205
0.679163,0.457817,0.409312,0.677839,0.913903
0.686171,0.459555,0.400405,0.677052,0.914601
0.693179,0.461292,0.391497,0.676264,0.915299
0.700188,0.463029,0.382590,0.675477,0.915997
0.707196,0.464767,0.373683,0.674690,0.916696
0.714204,0.466504,0.364776,0.673903,0.917394
0.721212,0.468242,0.355869,0.673116,0.918092
0.728220,0.469979,0.346961,0.672329,0.918790
0.734651,0.471529,0.338628,0.671320,0.918869
0.740504,0.472891,0.330868,0.670091,0.918329
0.745780,0.474065,0.323681,0.668642,0.917171
0.750478,0.475051,0.317068,0.666971,0.915394
0.754598,0.475849,0.311028,0.665079,0.912998
0.758141,0.476460,0.305562,0.662966,0.909983
0.761106,0.476883,0.300670,0.660632,0.906349
0.763494,0.477118,0.296351,0.658078,0.902097
0.765304,0.477165,0.292605,0.655302,0.897226
0.766536,0.477024,0.289434,0.652306,0.891736
0.767191,0.476696,0.286835,0.649089,0.885627
0.767268,0.476180,0.284810,0.645650,0.878899
0.766768,0.475476,0.283359,0.641991,0.871552
0.765690,0.474584,0.282481,0.638111,0.863587
0.764035,0.473504,0.282177,0.634010,0.855003
0.761802,0.472237,0.282446,0.629688,0.845800
0.758991,0.470782,0.283289,0.625145,0.835978
0.756181,0.469326,0.284131,0.620602,0.826156
0.753370,0.467871,0.284974,0.616059,0.816334
0.750560,0.466416,0.285817,0.611516,0.806512
0.747749,0.464961,0.286660,0.606973,0.796690
0.744939,0.463505,0.287502,0.602430,0.786868
0.742128,0.462050,0.288345,0.597887,0.777047
0.739318,0.460595,0.289188,0.593344,0.767225
0.736507,0.459140,0.290031,0.588801,0.757403
0.733697,0.457684,0.290873,0.584259,0.747581
0.730886,0.456229,0.291716,0.579716,0.737759
0.728075,0.454774,0.292559,0.575173,0.727937
0.725265,0.453319,0.293402,0.570630,0.718115
0.722454,0.451863,0.294244,0.566087,0.708294
0.719644,0.450408,0.295087,0.561544,0.698472
0.716833,0.448953,0.295930,0.557001,0.688650
0.714023,0.447498,0.296772,0.552458,0.678828
0.711212,0.446042,0.297615,0.547915,0.669006
0.708402,0.444587,0.298458,0.543372,0.659184
0.705591,0.443132,0.299301,0.538829,0.649362
0.702781,0.441677,0.300143,0.534286,0.639540
0.699970,0.440221,0.300986,0.529743,0.629719
0.697160,0.438766,0.301829,0.525200,0.619897
0.694349,0.437311,0.302672,0.520658,0.610075
0.691538,0.435856,0.303514,0.516115,0.600253
0.688728,0.434400,0.304357,0.511572,0.590431
0.685917,0.432945,0.305200,0.507029,0.580609
0.683107,0.431490,0.306043,0.502486,0.570787
0.680296,0.430035,0.306885,0.497943,0.560966
0.677486,0.428579,0.307728,0.493400,0.551144
0.674675,0.427124,0.308571,0.488857,0.541322
0.671865,0.425669,0.309414,0.484314,0.531500
0.669054,0.424214,0.310256,0.479771,0.521678
0.666244,0.422759,0.311099,0.475228,0.511856
0.663433,0.421303,0.311942,0.470685,0.502034
0.660622,0.419848,0.312784,0.466142,0.492213
0.657812,0.418393,0.313627,0.461600,0.482391
0.655001,0.416938,0.314470,0.457057,0.472569
0.652191,0.415482,0.315313,0.452514,0.462747
0.649380,0.414027,0.316155,0.447971,0.452925
0.646570,0.412572,0.316998,0.443428,0.443103
0.643759,0.411117,0.317841,0.438885,0.433281
0.640949,0.409661,0.318684,0.434342,0.423460
0.638138,0.408206,0.319526,0.429799,0.413638
0.635328,0.406751,0.320369,0.425256,0.403816
0.632517,0.405296,0.321212,0.420713,0.393994
0.629707,0.403840,0.322055,0.416170,0.384172
0.626896,0.402385,0.322897,0.411627,0.374350
0.624085,0.400930,0.323740,0.407084,0.364528
0.621275,0.399475,0.324583,0.402541,0.354707
0.618464,0.398019,0.325426,0.397999,0.344885
0.615654,0.396564,0.326268,0.393456,0.335063
0.612843,0.395109,0.327111,0.388913,0.325241
0.610033,0.393654,0.327954,0.384370,0.315419
0.607222,0.392198,0.328796,0.379827,0.305597
0.604412,0.390743,0.329639,0.375284,0.295775
0.601601,0.389288,0.330482,0.370741,0.285954
0.598791,0.387833,0.331325,0.366198,0.276132
0.595980,0.386377,0.332167,0.361655,0.266310
0.593169,0.384922,0.333010,0.357112,0.256488
0.590352,0.383741,0.333902,0.352643,0.247482
0.587528,0.382835,0.334844,0.348246,0.239293
0.584697,0.382203,0.335834,0.343923,0.231920
0.581859,0.381845,0.336874,0.339673,0.225364
0.579014,0.381761,0.337963,0.335496,0.219624
0.576162,0.381952,0.339102,0.331393,0.214700
0.573303,0.382417,0.340290,0.327363,0.210593
0.570438,0.383157,0.341527,0.323406,0.207302
0.567565,0.384171,0.342814,0.319522,0.204827
0.564686,0.385459,0.344149,0.315711,0.203169
0.561800,0.387022,0.345534,0.311974,0.202326
0.558907,0.388859,0.346969,0.308310,0.202301
0.556007,0.390971,0.348452,0.304719,0.203091
0.553100,0.393356,0.349985,0.301202,0.204699
0.550187,0.396016,0.351568,0.297757,0.207122
0.547266,0.398951,0.353199,0.294386,0.210362
0.544339,0.402160,0.354880,0.291088,0.214418
0.541411,0.405369,0.356561,0.287791,0.218474
0.538484,0.408578,0.358242,0.284493,0.222530
0.535557,0.411786,0.359923,0.281195,0.226586
0.532629,0.414995,0.361604,0.277897,0.230642
0.529702,0.418204,0.363285,0.274599,0.234698
0.526775,0.421413,0.364966,0.271302,0.238754
0.523847,0.424622,0.366647,0.268004,0.242810
0.520920,0.427831,0.368328,0.264706,0.246866
0.517992,0.431039,0.370009,0.261408,0.250922
0.515065,0.434248,0.371689,0.258110,0.254978
0.512138,0.437457,0.373370,0.254812,0.259034
0.509210,0.440666,0.375051,0.251515,0.263091
0.506283,0.443875,0.376732,0.248217,0.267147
0.503356,0.447084,0.378413,0.244919,0.271203
0.500428,0.450293,0.380094,0.241621,0.275259
0.497501,0.453501,0.381775,0.238323,0.279315
0.494573,0.456710,0.383456,0.235026,0.283371
0.491646,0.459919,0.385137,0.231728,0.287427
0.488719,0.463128,0.386818,0.228430,0.291483
0.485791,0.466337,0.388499,0.225132,0.295539
0.482864,0.469546,0.390179,0.221834,0.299595
0.479937,0.472755,0.391860,0.218537,0.303651
0.477009,0.475963,0.393541,0.215239,0.307707
0.474082,0.479172,0.395222,0.211941,0.311763
0.471155,0.482381,0.396903,0.208643,0.315819
0.468227,0.485590,0.398584,0.205345,0.319876
0.465300,0.488799,0.400265,0.202047,0.323932
0.462372,0.492008,0.401946,0.198750,0.327988
0.459445,0.495217,0.403627,0.195452,0.332044
0.456518,0.498425,0.405308,0.192154,0.336100
0.453590,0.501634,0.406989,0.188856,0.340156
0.450663,0.504843,0.408670,0.185558,0.344212
0.447736,0.508052,0.410350,0.182261,0.348268
0.444808,0.511261,0.412031,0.178963,0.352324
0.441881,0.514470,0.413712,0.175665,0.356380
0.438953,0.517678,0.415393,0.172367,0.360436
0.436026,0.520887,0.417074,0.169069,0.364492
0.433099,0.524096,0.418755,0.165771,0.368548
0.430171,0.527305,0.420436,0.162474,0.372604
0.427244,0.530514,0.422117,0.159176,0.376661
0.424317,0.533723,0.423798,0.155878,0.380717
0.421389,0.536932,0.425479,0.152580,0.384773
0.418462,0.540140,0.427160,0.149282,0.388829
0.415534,0.543349,0.428840,0.145985,0.392885
0.412607,0.546558,0.430521,0.142687,0.396941
0.409680,0.549767,0.432202,0.139389,0.400997
0.406752,0.552976,0.433883,0.136091,0.405053
0.403825,0.556185,0.435564,0.132793,0.409109
0.400898,0.559394,0.437245,0.129495,0.413165
0.397970,0.562602,0.438926,0.126198,0.417221
0.395043,0.565811,0.440607,0.122900,0.421277
0.392116,0.569020,0.442288,0.119602,0.425333
0.389188,0.572229,0.443969,0.116304,0.429389
0.386261,0.575438,0.445650,0.113006,0.433446
0.383333,0.578647,0.447331,0.109709,0.437502
0.380406,0.581856,0.449011,0.106411,0.441558
0.377479,0.585064,0.450692,0.103113,0.445614
0.374551,0.588273,0.452373,0.099815,0.449670
0.371624,0.591482,0.454054,0.096517,0.453726
0.368995,0.594466,0.455800,0.093403,0.457450
0.366665,0.597225,0.457610,0.090473,0.460841
0.364633,0.599759,0.459485,0.087727,0.463900
0.362900,0.602068,0.461425,0.085165,0.466627
0.361465,0.604152,0.463429,0.082787,0.469021
0.360329,0.606011,0.465498,0.080593,0.471084
0.359491,0.607645,0.467632,0.078582,0.472814
0.358952,0.609054,0.469831,0.076756,0.474211
0.358712,0.610238,0.472094,0.075113,0.475276
0.358770,0.611197,0.474422,0.073655,0.476009
0.359126,0.611932,0.476814,0.072380,0.476410
0.359781,0.612441,0.479272,0.071289,0.476478
0.360735,0.612725,0.481793,0.070382,0.476214
0.361987,0.612785,0.484380,0.069660,0.475618
0.363538,0.612619,0.487032,0.069120,0.474689
0.365387,0.612228,0.489748,0.068765,0.473428
0.367535,0.611613,0.492528,0.068594,0.471835
0.369683,0.610997,0.495309,0.068423,0.470241
0.371830,0.610382,0.498090,0.068252,0.468648
0.373978,0.609766,0.500871,0.068081,0.467055
0.376126,0.609151,0.503651,0.067910,0.465461
0.378274,0.608535,0.506432,0.067738,0.463868
0.380421,0.607919,0.509213,0.067567,0.462275
0.382569,0.607304,0.511994,0.067396,0.460682
0.384717,0.606688,0.514774,0.067225,0.459088
0.386865,0.606073,0.517555,0.067054,0.457495
0.389013,0.605457,0.520336,0.066883,0.455902
0.391160,0.604842,0.523117,0.066711,0.454308
0.393308,0.604226,0.525898,0.066540,0.452715
0.395456,0.603611,0.528678,0.066369,0.451122
0.397604,0.602995,0.531459,0.066198,0.449528
0.399751,0.602379,0.534240,0.066027,0.447935
0.401899,0.601764,0.537021,0.065855,0.446342
0.404047,0.601148,0.539801,0.065684,0.444748
0.406195,0.600533,0.542582,0.065513,0.443155
0.408342,0.599917,0.545363,0.065342,0.441562
0.410490,0.599302,0.548144,0.065171,0.439969
0.412638,0.598686,0.550924,0.065000,0.438375
0.414786,0.598070,0.553705,0.064828,0.436782
0.416934,0.597455,0.556486,0.064657,0.435189
0.419081,0.596839,0.559267,0.064486,0.433595
0.421229,0.596224,0.562047,0.064315,0.432002
0.423377,0.595608,0.564828,0.064144,0.430409
0.425525,0.594993,0.567609,0.063973,0.428815
0.427672,0.594377,0.570390,0.063801,0.427222
0.429820,0.593762,0.573170,0.063630,0.425629
0.431968,0.593146,0.575951,0.063459,0.424036
0.434116,0.592530,0.578732,0.063288,0.422442
0.436263,0.591915,0.581513,0.063117,0.420849
0.438411,0.591299,0.584294,0.062946,0.419256
0.440559,0.590684,0.587074,0.062774,0.417662
0.442707,0.590068,0.589855,0.062603,0.416069
0.444855,0.589453,0.592636,0.062432,0.414476
0.447002,0.588837,0.595417,0.062261,0.412882
0.449150,0.588222,0.598197,0.062090,0.411289
0.451298,0.587606,0.600978,0.061918,0.409696
0.453446,0.586990,0.603759,0.061747,0.408102
0.455593,0.586375,0.606540,0.061576,0.406509
0.457741,0.585759,0.609320,0.061405,0.404916
0.459889,0.585144,0.612101,0.061234,0.403323
0.462037,0.584528,0.614882,0.061063,0.401729
0.464184,0.583913,0.617663,0.060891,0.400136
0.466332,0.583297,0.620443,0.060720,0.398543
0.468480,0.582681,0.623224,0.060549,0.396949
0.470628,0.582066,0.626005,0.060378,0.395356
0.472776,0.581450,0.628786,0.060207,0.393763
0.474923,0.580835,0.631566,0.060036,0.392169
0.477071,0.580219,0.634347,0.059864,0.390576
0.479219,0.579604,0.637128,0.059693,0.388983
0.481367,0.578988,0.639909,0.059522,0.387390
0.483514,0.578373,0.642690,0.059351,0.385796
0.485662,0.577757,0.645470,0.059180,0.384203
0.487810,0.577141,0.648251,0.059009,0.382610
0.489958,0.576526,0.651032,0.058837,0.381016
0.492105,0.575910,0.653813,0.058666,0.379423
0.494253,0.575295,0.656593,0.058495,0.377830
0.496387,0.574570,0.659290,0.058888,0.376674
0.498506,0.573737,0.661902,0.059846,0.375955
0.500610,0.572795,0.664430,0.061367,0.375674
0.502701,0.571745,0.666873,0.063453,0.375830
0.504777,0.570585,0.669232,0.066104,0.376424
0.506838,0.569317,0.671507,0.069318,0.377454
0.508886,0.567940,0.673698,0.073097,0.378923
0.510919,0.566454,0.675804,0.077441,0.380828
0.512937,0.564859,0.677826,0.082348,0.383171
0.514941,0.563156,0.679763,0.087820,0.385952
0.516931,0.561343,0.681616,0.093856,0.389169
0.518907,0.559422,0.683385,0.100457,0.392824
0.520868,0.557393,0.685070,0.107622,0.396917
0.522815,0.555254,0.686670,0.115351,0.401446
0.524747,0.553007,0.688186,0.123644,0.406414
0.526665,0.550650,0.689618,0.132502,0.411818
0.528569,0.548185,0.690965,0.141924,0.417660
0.530472,0.545720,0.692312,0.151346,0.423502
0.532376,0.543255,0.693659,0.160768,0.429344
0.534280,0.540790,0.695007,0.170190,0.435185
0.536184,0.538326,0.696354,0.179612,0.441027
0.538087,0.535861,0.697701,0.189034,0.446869
0.539991,0.533396,0.699048,0.198457,0.452711
0.541895,0.530931,0.700396,0.207879,0.458553
0.543798,0.528466,0.701743,0.217301,0.464395
0.545702,0.526001,0.703090,0.226723,0.470237
0.547606,0.523536,0.704437,0.236145,0.476078
0.549510,0.521071,0.705785,0.245567,0.481920
0.551413,0.518606,0.707132,0.254989,0.487762
0.553317,0.516141,0.708479,0.264411,0.493604
0.555221,0.513676,0.709827,0.273833,0.499446
0.557124,0.511211,0.711174,0.283255,0.505288
0.559028,0.508746,0.712521,0.292677,0.511130
0.560932,0.506281,0.713868,0.302099,0.516971
0.562835,0.503816,0.715216,0.311521,0.522813
0.564739,0.501351,0.716563,0.320943,0.528655
0.566643,0.498886,0.717910,0.330365,0.534497
0.568547,0.496421,0.719257,0.339787,0.540339
0.570450,0.493956,0.720605,0.349209,0.546181
0.572354,0.491491,0.721952,0.358631,0.552023
0.574258,0.489026,0.723299,0.368054,0.557864
0.576161,0.486561,0.724646,0.377476,0.563706
0.578065,0.484096,0.725994,0.386898,0.569548
0.579969,0.481631,0.727341,0.396320,0.575390
0.581873,0.479166,0.728688,0.405742,0.581232
0.583776,0.476701,0.730035,0.415164,0.587074
0.585680,0.474236,0.731383,0.424586,0.592916
0.587584,0.471771,0.732730,0.434008,0.598757
0.589487,0.469306,0.734077,0.443430,0.604599
0.591391,0.466841,0.735425,0.452852,0.610441
0.593295,0.464376,0.736772,0.462274,0.616283
0.595199,0.461911,0.738119,0.471696,0.622125
0.597102,0.459446,0.739466,0.481118,0.627967
0.599006,0.456981,0.740814,0.490540,0.633809
0.600910,0.454516,0.742161,0.499962,0.639650
0.602813,0.452051,0.743508,0.509384,0.645492
0.604717,0.449586,0.744855,0.518806,0.651334
0.606621,0.447121,0.746203,0.528229,0.657176
0.608524,0.444656,0.747550,0.537651,0.663018
0.610428,0.442191,0.748897,0.547073,0.668860
