density,loudness,brightness,roughness,speed
0.694688,0.472586,0.476726,0.177174,0.529455
0.695571,0.474772,0.475530,0.179082,0.530796
0.696552,0.477202,0.474201,0.181203,0.532286
0.697631,0.479874,0.472739,0.183535,0.533925
0.698808,0.482789,0.471144,0.186080,0.535713
0.700084,0.485947,0.469416,0.188837,0.537650
0.701457,0.489348,0.467555,0.191806,0.539735
0.702929,0.492992,0.465562,0.194986,0.541970
0.704499,0.496878,0.463435,0.198379,0.544354
0.706166,0.501008,0.461176,0.201984,0.546887
0.707834,0.505138,0.458916,0.205589,0.549420
0.709502,0.509268,0.456657,0.209194,0.551952
0.711170,0.513397,0.454397,0.212799,0.554485
0.712837,0.517527,0.452138,0.216404,0.557018
0.714505,0.521657,0.449878,0.220009,0.559551
0.716173,0.525786,0.447619,0.223614,0.562084
0.717841,0.529916,0.445359,0.227219,0.564616
0.719509,0.534046,0.443100,0.230824,0.567149
0.721176,0.538175,0.440840,0.234429,0.569682
0.722844,0.542305,0.438581,0.238034,0.572215
0.724512,0.546435,0.436322,0.241639,0.574748
0.726180,0.550565,0.434062,0.245244,0.577280
0.727848,0.554694,0.431803,0.248849,0.579813
0.729515,0.558824,0.429543,0.252454,0.582346
0.731183,0.562954,0.427284,0.256059,0.584879
0.732851,0.567083,0.425024,0.259664,0.587412
0.734519,0.571213,0.422765,0.263269,0.589944
0.736186,0.575343,0.420505,0.266874,0.592477
0.737854,0.579472,0.418246,0.270479,0.595010
0.739522,0.583602,0.415986,0.274083,0.597543
0.741190,0.587732,0.413727,0.277688,0.600076
0.742858,0.591862,0.411467,0.281293,0.602608
0.744525,0.595991,0.409208,0.284898,0.605141
0.746193,0.600121,0.406948,0.288503,0.607674
0.747861,0.604251,0.404689,0.292108,0.610207
0.749529,0.608380,0.402429,0.295713,0.612740
0.751196,0.612510,0.400170,0.299318,0.615272
0.752864,0.616640,0.397910,0.302923,0.617805
0.754532,0.620769,0.395651,0.306528,0.620338
0.756200,0.624899,0.393391,0.310133,0.622871
0.757868,0.629029,0.391132,0.313738,0.625404
0.759535,0.633159,0.388873,0.317343,0.627936
0.761203,0.637288,0.386613,0.320948,0.630469
0.762871,0.641418,0.384354,0.324553,0.633002
0.764539,0.645548,0.382094,0.328158,0.635535
0.766207,0.649677,0.379835,0.331763,0.638068
0.767874,0.653807,0.377575,0.335368,0.640600
0.769542,0.657937,0.375316,0.338973,0.643133
0.771210,0.662066,0.373056,0.342578,0.645666
0.772878,0.666196,0.370797,0.346183,0.648199
0.774545,0.670326,0.368537,0.349788,0.650732
0.776213,0.674456,0.366278,0.353393,0.653264
0.777881,0.678585,0.364018,0.356997,0.655797
0.779549,0.682715,0.361759,0.360602,0.658330
0.781217,0.686845,0.359499,0.364207,0.660863
0.782884,0.690974,0.357240,0.367812,0.663396
0.784552,0.695104,0.354980,0.371417,0.665928
0.786220,0.699234,0.352721,0.375022,0.668461
0.787888,0.703363,0.350461,0.378627,0.670994
0.789556,0.707493,0.348202,0.382232,0.673527
0.791223,0.711623,0.345942,0.385837,0.676059
0.792891,0.715753,0.343683,0.389442,0.678592
0.794559,0.719882,0.341424,0.393047,0.681125
0.796227,0.724012,0.339164,0.396652,0.683658
0.797894,0.728142,0.336905,0.400257,0.686191
0.799562,0.732271,0.334645,0.403862,0.688723
0.801230,0.736401,0.332386,0.407467,0.691256
0.802898,0.740531,0.330126,0.411072,0.693789
0.804566,0.744661,0.327867,0.414677,0.696322
0.806233,0.748790,0.325607,0.418282,0.698855
0.807901,0.752920,0.323348,0.421887,0.701387
0.809569,0.757050,0.321088,0.425492,0.703920
0.811237,0.761179,0.318829,0.429097,0.706453
0.812728,0.764972,0.316738,0.432391,0.708792
0.814027,0.768398,0.314830,0.435348,0.710919
0.815133,0.771456,0.313106,0.437966,0.712835
0.816047,0.774146,0.311566,0.440246,0.714540
0.816768,0.776470,0.310209,0.442188,0.716033
0.817297,0.778425,0.309036,0.443791,0.717314
0.817633,0.780014,0.308047,0.445056,0.718384
0.817777,0.781235,0.307241,0.445982,0.719242
0.817728,0.782088,0.306619,0.446571,0.719889
0.817487,0.782575,0.306180,0.446821,0.720324
0.817053,0.782693,0.305925,0.446732,0.720548
0.816427,0.782445,0.305854,0.446305,0.720561
0.815609,0.781829,0.305967,0.445540,0.720361
0.814597,0.780845,0.306262,0.444437,0.719951
0.813394,0.779494,0.306742,0.442996,0.719329
0.811997,0.777776,0.307405,0.441216,0.718495
0.810408,0.775690,0.308252,0.439097,0.717450
0.808804,0.773574,0.309114,0.436951,0.716387
0.807199,0.771457,0.309976,0.434804,0.715324
0.805594,0.769341,0.310839,0.432658,0.714261
0.803989,0.767225,0.311701,0.430511,0.713199
0.802384,0.765108,0.312563,0.428365,0.712136
0.800780,0.762992,0.313425,0.426218,0.711073
0.799175,0.760876,0.314287,0.424072,0.710010
0.797570,0.758759,0.315149,0.421925,0.708947
0.795965,0.756643,0.316011,0.419779,0.707885
0.794360,0.754526,0.316874,0.417632,0.706822
0.792756,0.752410,0.317736,0.415486,0.705759
0.791151,0.750294,0.318598,0.413339,0.704696
0.789546,0.748177,0.319460,0.411193,0.703633
0.787941,0.746061,0.320322,0.409047,0.702571
0.786336,0.743945,0.321184,0.406900,0.701508
0.784732,0.741828,0.322046,0.404754,0.700445
0.783127,0.739712,0.322909,0.402607,0.699382
0.781522,0.737596,0.323771,0.400461,0.698319
0.779917,0.735479,0.324633,0.398314,0.697257
0.778312,0.733363,0.325495,0.396168,0.696194
0.776708,0.731246,0.326357,0.394021,0.695131
0.775103,0.729130,0.327219,0.391875,0.694068
0.773498,0.727014,0.328082,0.389728,0.693005
0.771893,0.724897,0.328944,0.387582,0.691943
0.770288,0.722781,0.329806,0.385435,0.690880
0.768684,0.720665,0.330668,0.383289,0.689817
0.767079,0.718548,0.331530,0.381142,0.688754
0.765474,0.716432,0.332392,0.378996,0.687691
0.763869,0.714316,0.333254,0.376849,0.686629
0.762264,0.712199,0.334117,0.374703,0.685566
0.760660,0.710083,0.334979,0.372556,0.684503
0.759055,0.707966,0.335841,0.370410,0.683440
0.757450,0.705850,0.336703,0.368263,0.682377
0.755845,0.703734,0.337565,0.366117,0.681315
0.754240,0.701617,0.338427,0.363970,0.680252
0.752636,0.699501,0.339289,0.361824,0.679189
0.751031,0.697385,0.340152,0.359677,0.678126
0.749426,0.695268,0.341014,0.357531,0.677063
0.747821,0.693152,0.341876,0.355385,0.676001
0.746216,0.691036,0.342738,0.353238,0.674938
0.744612,0.688919,0.343600,0.351092,0.673875
0.743007,0.686803,0.344462,0.348945,0.672812
0.741402,0.684686,0.345324,0.346799,0.671749
0.739797,0.682570,0.346187,0.344652,0.670687
0.738192,0.680454,0.347049,0.342506,0.669624
0.736588,0.678337,0.347911,0.340359,0.668561
0.734983,0.676221,0.348773,0.338213,0.667498
0.733378,0.674105,0.349635,0.336066,0.666435
0.731773,0.671988,0.350497,0.333920,0.665373
0.730168,0.669872,0.351360,0.331773,0.664310
0.728564,0.667756,0.352222,0.329627,0.663247
0.726959,0.665639,0.353084,0.327480,0.662184
0.725354,0.663523,0.353946,0.325334,0.661121
0.723749,0.661406,0.354808,0.323187,0.660059
0.722144,0.659290,0.355670,0.321041,0.658996
0.720540,0.657174,0.356532,0.318894,0.657933
0.718935,0.655057,0.357395,0.316748,0.656870
0.717330,0.652941,0.358257,0.314601,0.655807
0.715725,0.650825,0.359119,0.312455,0.654745
0.714120,0.648708,0.359981,0.310308,0.653682
0.712516,0.646592,0.360843,0.308162,0.652619
0.710911,0.644476,0.361705,0.306015,0.651556
0.709306,0.642359,0.362567,0.303869,0.650493
0.707591,0.640198,0.363584,0.301968,0.649568
0.705743,0.637984,0.364784,0.300362,0.648807
0.703762,0.635716,0.366170,0.299051,0.648210
0.701649,0.633395,0.367740,0.298034,0.647778
0.699403,0.631020,0.369495,0.297312,0.647511
0.697025,0.628592,0.371435,0.296885,0.647408
0.694514,0.626110,0.373560,0.296753,0.647469
0.691870,0.623575,0.375869,0.296915,0.647696
0.689094,0.620986,0.378363,0.297372,0.648086
0.686185,0.618344,0.381042,0.298124,0.648642
0.683144,0.615648,0.383906,0.299171,0.649362
0.679969,0.612899,0.386954,0.300512,0.650246
0.676663,0.610097,0.390187,0.302149,0.651295
0.673223,0.607241,0.393605,0.304080,0.652509
0.669651,0.604331,0.397207,0.306305,0.653887
0.665947,0.601368,0.400994,0.308826,0.655430
0.662110,0.598352,0.404966,0.311641,0.657137
0.658250,0.595327,0.408969,0.314505,0.658872
0.654391,0.592301,0.412972,0.317370,0.660606
0.650532,0.589276,0.416975,0.320234,0.662341
0.646673,0.586251,0.420978,0.323098,0.664076
0.642813,0.583225,0.424980,0.325963,0.665810
0.638954,0.580200,0.428983,0.328827,0.667545
0.635095,0.577175,0.432986,0.331691,0.669280
0.631235,0.574149,0.436989,0.334556,0.671015
0.627376,0.571124,0.440992,0.337420,0.672749
0.623517,0.568099,0.444995,0.340284,0.674484
0.619658,0.565073,0.448997,0.343149,0.676219
0.615798,0.562048,0.453000,0.346013,0.677953
0.611939,0.559023,0.457003,0.348877,0.679688
0.608080,0.555997,0.461006,0.351742,0.681423
0.604220,0.552972,0.465009,0.354606,0.683157
0.600361,0.549947,0.469011,0.357470,0.684892
0.596502,0.546921,0.473014,0.360335,0.686627
0.592643,0.543896,0.477017,0.363199,0.688362
0.588783,0.540871,0.481020,0.366063,0.690096
0.584924,0.537846,0.485023,0.368928,0.691831
0.581065,0.534820,0.489025,0.371792,0.693566
0.577205,0.531795,0.493028,0.374656,0.695300
0.573346,0.528770,0.497031,0.377521,0.697035
0.569487,0.525744,0.501034,0.380385,0.698770
0.565628,0.522719,0.505037,0.383249,0.700504
0.561768,0.519694,0.509039,0.386114,0.702239
0.557909,0.516668,0.513042,0.388978,0.703974
0.554050,0.513643,0.517045,0.391842,0.705709
0.550190,0.510618,0.521048,0.394707,0.707443
0.546331,0.507592,0.525051,0.397571,0.709178
0.542472,0.504567,0.529053,0.400435,0.710913
0.538613,0.501542,0.533056,0.403300,0.712647
0.534753,0.498516,0.537059,0.406164,0.714382
0.530894,0.495491,0.541062,0.409028,0.716117
0.527035,0.492466,0.545065,0.411893,0.717852
0.523175,0.489440,0.549067,0.414757,0.719586
0.519316,0.486415,0.553070,0.417621,0.721321
0.515457,0.483390,0.557073,0.420486,0.723056
0.511598,0.480364,0.561076,0.423350,0.724790
0.507738,0.477339,0.565079,0.426214,0.726525
0.503879,0.474314,0.569082,0.429079,0.728260
0.500020,0.471288,0.573084,0.431943,0.729994
0.496161,0.468263,0.577087,0.434807,0.731729
0.492301,0.465238,0.581090,0.437672,0.733464
0.488442,0.462213,0.585093,0.440536,0.735199
0.484583,0.459187,0.589096,0.443400,0.736933
0.480723,0.456162,0.593098,0.446265,0.738668
0.476864,0.453137,0.597101,0.449129,0.740403
0.473005,0.450111,0.601104,0.451993,0.742137
0.469146,0.447086,0.605107,0.454858,0.743872
0.465286,0.444061,0.609110,0.457722,0.745607
0.461427,0.441035,0.613112,0.460586,0.747341
0.457568,0.438010,0.617115,0.463451,0.749076
0.453708,0.434985,0.621118,0.466315,0.750811
0.449849,0.431959,0.625121,0.469179,0.752546
0.445990,0.428934,0.629124,0.472044,0.754280
0.442131,0.425909,0.633126,0.474908,0.756015
0.438271,0.422883,0.637129,0.477772,0.757750
0.434412,0.419858,0.641132,0.480637,0.759484
0.430553,0.416833,0.645135,0.483501,0.761219
0.426693,0.413807,0.649138,0.486365,0.762954
0.422834,0.410782,0.653140,0.489230,0.764688
0.418975,0.407757,0.657143,0.492094,0.766423
0.415367,0.405015,0.660945,0.494955,0.768195
0.412094,0.402652,0.664478,0.497811,0.770015
0.409156,0.400668,0.667743,0.500663,0.771884
0.406553,0.399062,0.670740,0.503510,0.773803
0.404286,0.397835,0.673468,0.506353,0.775770
0.402353,0.396986,0.675929,0.509191,0.777787
0.400756,0.396515,0.678121,0.512025,0.779852
0.399493,0.396423,0.680044,0.514854,0.781966
0.398566,0.396710,0.681700,0.517679,0.784130
0.397974,0.397375,0.683087,0.520499,0.786342
0.397717,0.398418,0.684205,0.523314,0.788603
0.397795,0.399840,0.685056,0.526125,0.790913
0.398208,0.401641,0.685638,0.528931,0.793273
0.398956,0.403820,0.685952,0.531733,0.795681
0.400039,0.406377,0.685998,0.534530,0.798138
0.401457,0.409313,0.685775,0.537323,0.800644
0.403211,0.412628,0.685284,0.540111,0.803199
0.405048,0.416037,0.684726,0.542898,0.805767
0.406885,0.419446,0.684168,0.545685,0.808334
0.408722,0.422855,0.683611,0.548472,0.810902
0.410559,0.426265,0.683053,0.551259,0.813469
0.412396,0.429674,0.682495,0.554046,0.816036
0.414234,0.433083,0.681937,0.556833,0.818604
0.416071,0.436492,0.681379,0.559620,0.821171
0.417908,0.439901,0.680821,0.562407,0.823739
0.419745,0.443310,0.680263,0.565194,0.826306
0.421582,0.446719,0.679705,0.567981,0.828874
0.423419,0.450129,0.679147,0.570768,0.831441
0.425256,0.453538,0.678589,0.573555,0.834008
0.427094,0.456947,0.678031,0.576343,0.836576
0.428931,0.460356,0.677473,0.579130,0.839143
0.430768,0.463765,0.676915,0.581917,0.841711
0.432605,0.467174,0.676357,0.584704,0.844278
0.434442,0.470583,0.675799,0.587491,0.846846
0.436279,0.473993,0.675241,0.590278,0.849413
0.438116,0.477402,0.674683,0.593065,0.851980
0.439954,0.480811,0.674125,0.595852,0.854548
0.441791,0.484220,0.673567,0.598639,0.857115
0.443628,0.487629,0.673010,0.601426,0.859683
0.445465,0.491038,0.672452,0.604213,0.862250
0.447302,0.494448,0.671894,0.607000,0.864818
0.449139,0.497857,0.671336,0.609787,0.867385
0.450976,0.501266,0.670778,0.612574,0.869952
0.452814,0.504675,0.670220,0.615361,0.872520
0.454651,0.508084,0.669662,0.618148,0.875087
0.456488,0.511493,0.669104,0.620935,0.877655
0.458325,0.514902,0.668546,0.623722,0.880222
0.460162,0.518312,0.667988,0.626509,0.882789
0.461999,0.521721,0.667430,0.629296,0.885357
0.463837,0.525130,0.666872,0.632083,0.887924
0.465674,0.528539,0.666314,0.634870,0.890492
0.467511,0.531948,0.665756,0.637657,0.893059
0.469348,0.535357,0.665198,0.640444,0.895627
0.471185,0.538766,0.664640,0.643231,0.898194
0.473022,0.542176,0.664082,0.646018,0.900761
0.474859,0.545585,0.663524,0.648805,0.903329
0.476697,0.548994,0.662966,0.651592,0.905896
0.478534,0.552403,0.662408,0.654379,0.908464
0.480371,0.555812,0.661851,0.657166,0.911031
0.482208,0.559221,0.661293,0.659953,0.913599
0.484045,0.562630,0.660735,0.662740,0.916166
0.485882,0.566040,0.660177,0.665527,0.918733
0.487719,0.569449,0.659619,0.668314,0.921301
0.489557,0.572858,0.659061,0.671101,0.923868
0.491394,0.576267,0.658503,0.673888,0.926436
0.493231,0.579676,0.657945,0.676675,0.929003
0.495068,0.583085,0.657387,0.679462,0.931571
0.496905,0.586495,0.656829,0.682249,0.934138
0.498742,0.589904,0.656271,0.685037,0.936705
0.500579,0.593313,0.655713,0.687824,0.939273
0.502417,0.596722,0.655155,0.690611,0.941840
0.504254,0.600131,0.654597,0.693398,0.944408
0.506091,0.603540,0.654039,0.696185,0.946975
0.507928,0.606949,0.653481,0.698972,0.949542
0.509765,0.610359,0.652923,0.701759,0.952110
0.511602,0.613768,0.652365,0.704546,0.954677
0.513439,0.617177,0.651807,0.707333,0.957245
0.515277,0.620586,0.651249,0.710120,0.959812
0.517114,0.623995,0.650692,0.712907,0.962380
0.518951,0.627404,0.650134,0.715694,0.964947
0.520879,0.630625,0.649435,0.718316,0.967238
0.522942,0.633564,0.648526,0.720692,0.969113
0.525142,0.636221,0.647405,0.722821,0.970573
0.527478,0.638596,0.646074,0.724703,0.971618
0.529950,0.640689,0.644532,0.726338,0.972248
0.532558,0.642500,0.642778,0.727726,0.972462
0.535302,0.644029,0.640814,0.728868,0.972262
0.538181,0.645275,0.638639,0.729762,0.971646
0.541197,0.646240,0.636253,0.730410,0.970615
0.544349,0.646922,0.633657,0.730811,0.969168
0.547637,0.647323,0.630849,0.730966,0.967307
0.551061,0.647441,0.627830,0.730873,0.965030
0.554620,0.647277,0.624600,0.730534,0.962338
0.558316,0.646831,0.621160,0.729947,0.959231
0.562148,0.646104,0.617508,0.729114,0.955708
0.566116,0.645094,0.613646,0.728034,0.951770
0.570220,0.643802,0.609573,0.726707,0.947417
0.574369,0.642416,0.605429,0.725298,0.942926
0.578518,0.641030,0.601285,0.723889,0.938435
0.582667,0.639644,0.597142,0.722480,0.933943
0.586816,0.638258,0.592998,0.721071,0.929452
0.590966,0.636872,0.588855,0.719662,0.924961
0.595115,0.635486,0.584711,0.718253,0.920469
0.599264,0.634100,0.580567,0.716844,0.915978
0.603413,0.632714,0.576424,0.715435,0.911487
0.607562,0.631327,0.572280,0.714026,0.906996
0.611711,0.629941,0.568137,0.712617,0.902504
0.615860,0.628555,0.563993,0.711208,0.898013
0.620010,0.627169,0.559849,0.709799,0.893522
0.624159,0.625783,0.555706,0.708390,0.889030
0.628308,0.624397,0.551562,0.706981,0.884539
0.632457,0.623011,0.547419,0.705572,0.880048
0.636606,0.621625,0.543275,0.704163,0.875556
0.640755,0.620239,0.539131,0.702754,0.871065
0.644905,0.618853,0.534988,0.701345,0.866574
0.649054,0.617467,0.530844,0.699936,0.862082
0.653203,0.616081,0.526700,0.698527,0.857591
0.657352,0.614695,0.522557,0.697118,0.853100
0.661501,0.613309,0.518413,0.695709,0.848608
0.665650,0.611923,0.514270,0.694300,0.844117
0.669800,0.610537,0.510126,0.692891,0.839626
0.673949,0.609151,0.505982,0.691482,0.835134
0.678098,0.607765,0.501839,0.690073,0.830643
0.682247,0.606379,0.497695,0.688664,0.826152
0.686396,0.604993,0.493552,0.687255,0.821660
0.690545,0.603607,0.489408,0.685846,0.817169
0.694694,0.602221,0.485264,0.684437,0.812678
0.698844,0.600835,0.481121,0.683028,0.808186
0.702993,0.599449,0.476977,0.681619,0.803695
0.707142,0.598063,0.472834,0.680210,0.799204
0.711291,0.596677,0.468690,0.678801,0.794712
0.715440,0.595291,0.464546,0.677392,0.790221
0.719589,0.593905,0.460403,0.675983,0.785730
0.723739,0.592519,0.456259,0.674574,0.781238
0.727888,0.591133,0.452115,0.673165,0.776747
0.732037,0.589747,0.447972,0.671756,0.772256
0.736186,0.588361,0.443828,0.670347,0.767765
0.740335,0.586975,0.439685,0.668938,0.763273
0.744484,0.585589,0.435541,0.667529,0.758782
0.748634,0.584203,0.431397,0.666120,0.754291
0.752783,0.582817,0.427254,0.664710,0.749799
0.756932,0.581431,0.423110,0.663301,0.745308
0.761081,0.580045,0.418967,0.661892,0.740817
0.765230,0.578659,0.414823,0.660483,0.736325
0.769379,0.577273,0.410679,0.659074,0.731834
0.773529,0.575887,0.406536,0.657665,0.727343
0.777678,0.574501,0.402392,0.656256,0.722851
0.781827,0.573115,0.398249,0.654847,0.718360
0.785976,0.571729,0.394105,0.653438,0.713869
0.790125,0.570343,0.389961,0.652029,0.709377
0.794274,0.568956,0.385818,0.650620,0.704886
0.798423,0.567570,0.381674,0.649211,0.700395
0.802573,0.566184,0.377530,0.647802,0.695903
0.806722,0.564798,0.373387,0.646393,0.691412
0.810871,0.563412,0.369243,0.644984,0.686921
0.815020,0.562026,0.365100,0.643575,0.682429
0.819169,0.560640,0.360956,0.642166,0.677938
0.823318,0.559254,0.356812,0.640757,0.673447
0.827468,0.557868,0.352669,0.639348,0.668955
0.831617,0.556482,0.348525,0.637939,0.664464
0.835373,0.555188,0.344660,0.636616,0.660276
0.838456,0.554051,0.341272,0.635441,0.656607
0.840865,0.553070,0.338360,0.634413,0.653458
0.842600,0.552247,0.335926,0.633533,0.650829
0.843662,0.551581,0.333969,0.632800,0.648719
0.844050,0.551072,0.332489,0.632215,0.647128
0.843764,0.550721,0.331486,0.631778,0.646057
0.842805,0.550526,0.330960,0.631488,0.645506
0.841172,0.550488,0.330911,0.631345,0.645474
0.838866,0.550608,0.331340,0.631351,0.645962
0.835886,0.550884,0.332245,0.631504,0.646969
0.832232,0.551318,0.333627,0.631804,0.648496
0.827905,0.551908,0.335486,0.632252,0.650543
0.822904,0.552656,0.337823,0.632848,0.653109
0.817230,0.553561,0.340636,0.633591,0.656195
0.810882,0.554623,0.343927,0.634481,0.659800
0.803860,0.555842,0.347695,0.635520,0.663925
0.796558,0.557127,0.351661,0.636620,0.668266
0.789255,0.558411,0.355627,0.637719,0.672607
0.781953,0.559696,0.359594,0.638819,0.676949
0.774651,0.560980,0.363560,0.639919,0.681290
0.767348,0.562265,0.367526,0.641019,0.685631
0.760046,0.563549,0.371493,0.642119,0.689972
0.752743,0.564834,0.375459,0.643218,0.694314
0.745441,0.566118,0.379426,0.644318,0.698655
0.738139,0.567403,0.383392,0.645418,0.702996
0.730836,0.568687,0.387358,0.646518,0.707338
0.723534,0.569972,0.391325,0.647618,0.711679
0.716232,0.571257,0.395291,0.648717,0.716020
0.708929,0.572541,0.399257,0.649817,0.720361
0.701627,0.573826,0.403224,0.650917,0.724703
0.694324,0.575110,0.407190,0.652017,0.729044
0.687022,0.576395,0.411157,0.653117,0.733385
0.679720,0.577679,0.415123,0.654216,0.737727
0.672417,0.578964,0.419089,0.655316,0.742068
0.665115,0.580248,0.423056,0.656416,0.746409
0.657812,0.581533,0.427022,0.657516,0.750750
0.650510,0.582817,0.430989,0.658616,0.755092
0.643208,0.584102,0.434955,0.659715,0.759433
0.635905,0.585386,0.438921,0.660815,0.763774
