density,loudness,brightness,roughness,speed
0.520882,0.333176,0.811286,0.506471,0.318722
0.522903,0.333964,0.810593,0.505226,0.321739
0.525148,0.334840,0.809824,0.503842,0.325091
0.527618,0.335804,0.808978,0.502321,0.328779
0.530313,0.336855,0.808056,0.500660,0.332802
0.533232,0.337994,0.807056,0.498862,0.337160
0.536375,0.339221,0.805979,0.496925,0.341853
0.539743,0.340535,0.804826,0.494849,0.346881
0.543336,0.341936,0.803595,0.492636,0.352245
0.547153,0.343426,0.802288,0.490284,0.357944
0.550970,0.344915,0.800980,0.487932,0.363643
0.554787,0.346404,0.799673,0.485580,0.369342
0.558604,0.347894,0.798365,0.483227,0.375040
0.562421,0.349383,0.797058,0.480875,0.380739
0.566238,0.350872,0.795751,0.478523,0.386438
0.570056,0.352361,0.794443,0.476171,0.392137
0.573873,0.353851,0.793136,0.473819,0.397836
0.577690,0.355340,0.791828,0.471467,0.403535
0.581507,0.356829,0.790521,0.469115,0.409234
0.585324,0.358319,0.789214,0.466763,0.414933
0.589141,0.359808,0.787906,0.464411,0.420632
0.592958,0.361297,0.786599,0.462059,0.426330
0.596775,0.362786,0.785291,0.459707,0.432029
0.600593,0.364276,0.783984,0.457355,0.437728
0.604410,0.365765,0.782677,0.455003,0.443427
0.608227,0.367254,0.781369,0.452651,0.449126
0.612044,0.368744,0.780062,0.450299,0.454825
0.615861,0.370233,0.778754,0.447947,0.460524
0.619678,0.371722,0.777447,0.445595,0.466223
0.623495,0.373211,0.776140,0.443243,0.471922
0.627312,0.374701,0.774832,0.440891,0.477621
0.631129,0.376190,0.773525,0.438539,0.483319
0.634947,0.377679,0.772218,0.436187,0.489018
0.638764,0.379168,0.770910,0.433835,0.494717
0.642581,0.380658,0.769603,0.431483,0.500416
0.646398,0.382147,0.768295,0.429131,0.506115
0.650215,0.383636,0.766988,0.426778,0.511814
0.654032,0.385126,0.765681,0.424426,0.517513
0.657849,0.386615,0.764373,0.422074,0.523212
0.661666,0.388104,0.763066,0.419722,0.528911
0.665484,0.389593,0.761758,0.417370,0.534609
0.669301,0.391083,0.760451,0.415018,0.540308
0.673118,0.392572,0.759144,0.412666,0.546007
0.676935,0.394061,0.757836,0.410314,0.551706
0.680752,0.395551,0.756529,0.407962,0.557405
0.684569,0.397040,0.755221,0.405610,0.563104
0.688386,0.398529,0.753914,0.403258,0.568803
0.692203,0.400018,0.752607,0.400906,0.574502
0.696020,0.401508,0.751299,0.398554,0.580201
0.699838,0.402997,0.749992,0.396202,0.585899
0.703655,0.404486,0.748684,0.393850,0.591598
0.707472,0.405976,0.747377,0.391498,0.597297
0.711289,0.407465,0.746070,0.389146,0.602996
0.715106,0.408954,0.744762,0.386794,0.608695
0.718923,0.410443,0.743455,0.384442,0.614394
0.722740,0.411933,0.742147,0.382090,0.620093
0.726557,0.413422,0.740840,0.379738,0.625792
0.730375,0.414911,0.739533,0.377386,0.631491
0.734192,0.416401,0.738225,0.375034,0.637189
0.738009,0.417890,0.736918,0.372682,0.642888
0.741826,0.419379,0.735610,0.370329,0.648587
0.745643,0.420868,0.734303,0.367977,0.654286
0.749460,0.422358,0.732996,0.365625,0.659985
0.753277,0.423847,0.731688,0.363273,0.665684
0.757094,0.425336,0.730381,0.360921,0.671383
0.760911,0.426826,0.729073,0.358569,0.677082
0.764729,0.428315,0.727766,0.356217,0.682781
0.768546,0.429804,0.726459,0.353865,0.688479
0.772363,0.431293,0.725151,0.351513,0.694178
0.776180,0.432783,0.723844,0.349161,0.699877
0.779997,0.434272,0.722536,0.346809,0.705576
0.783814,0.435761,0.721229,0.344457,0.711275
0.787534,0.437292,0.719959,0.342297,0.716782
0.791036,0.438917,0.718775,0.340569,0.721857
0.794320,0.440636,0.717675,0.339272,0.726500
0.797385,0.442449,0.716661,0.338408,0.730712
0.800232,0.444357,0.715731,0.337975,0.734492
0.802861,0.446358,0.714887,0.337975,0.737840
0.805271,0.448453,0.714128,0.338406,0.740756
0.807463,0.450642,0.713453,0.339269,0.743240
0.809437,0.452925,0.712864,0.340564,0.745293
0.811193,0.455302,0.712360,0.342291,0.746914
0.812730,0.457773,0.711941,0.344450,0.748103
0.814049,0.460338,0.711607,0.347041,0.748860
0.815150,0.462997,0.711358,0.350063,0.749185
0.816032,0.465750,0.711193,0.353518,0.749079
0.816696,0.468597,0.711114,0.357404,0.748540
0.817142,0.471538,0.711121,0.361722,0.747570
0.817370,0.474573,0.711212,0.366472,0.746168
0.817476,0.477660,0.711350,0.371462,0.744527
0.817583,0.480747,0.711488,0.376452,0.742885
0.817689,0.483834,0.711627,0.381442,0.741243
0.817795,0.486922,0.711765,0.386433,0.739601
0.817902,0.490009,0.711903,0.391423,0.737960
0.818008,0.493096,0.712041,0.396413,0.736318
0.818114,0.496183,0.712180,0.401403,0.734676
0.818221,0.499270,0.712318,0.406393,0.733034
0.818327,0.502358,0.712456,0.411383,0.731393
0.818433,0.505445,0.712595,0.416373,0.729751
0.818540,0.508532,0.712733,0.421363,0.728109
0.818646,0.511619,0.712871,0.426353,0.726467
0.818752,0.514707,0.713010,0.431343,0.724826
0.818859,0.517794,0.713148,0.436333,0.723184
0.818965,0.520881,0.713286,0.441323,0.721542
0.819072,0.523968,0.713425,0.446313,0.719900
0.819178,0.527055,0.713563,0.451303,0.718259
0.819284,0.530143,0.713701,0.456293,0.716617
0.819391,0.533230,0.713840,0.461283,0.714975
0.819497,0.536317,0.713978,0.466273,0.713333
0.819603,0.539404,0.714116,0.471264,0.711692
0.819710,0.542492,0.714255,0.476254,0.710050
0.819816,0.545579,0.714393,0.481244,0.708408
0.819922,0.548666,0.714531,0.486234,0.706766
0.820029,0.551753,0.714670,0.491224,0.705125
0.820135,0.554840,0.714808,0.496214,0.703483
0.820241,0.557928,0.714946,0.501204,0.701841
0.820348,0.561015,0.715084,0.506194,0.700199
0.820454,0.564102,0.715223,0.511184,0.698558
0.820561,0.567189,0.715361,0.516174,0.696916
0.820667,0.570277,0.715499,0.521164,0.695274
0.820773,0.573364,0.715638,0.526154,0.693632
0.820880,0.576451,0.715776,0.531144,0.691991
0.820986,0.579538,0.715914,0.536134,0.690349
0.821092,0.582625,0.716053,0.541124,0.688707
0.821199,0.585713,0.716191,0.546114,0.687065
0.821305,0.588800,0.716329,0.551105,0.685424
0.821411,0.591887,0.716468,0.556095,0.683782
0.821518,0.594974,0.716606,0.561085,0.682140
0.821624,0.598061,0.716744,0.566075,0.680498
0.821730,0.601149,0.716883,0.571065,0.678857
0.821837,0.604236,0.717021,0.576055,0.677215
0.821943,0.607323,0.717159,0.581045,0.675573
0.822049,0.610410,0.717298,0.586035,0.673931
0.822156,0.613498,0.717436,0.591025,0.672290
0.822262,0.616585,0.717574,0.596015,0.670648
0.822369,0.619672,0.717713,0.601005,0.669006
0.822475,0.622759,0.717851,0.605995,0.667364
0.822581,0.625846,0.717989,0.610985,0.665723
0.822688,0.628934,0.718127,0.615975,0.664081
0.822794,0.632021,0.718266,0.620965,0.662439
0.822900,0.635108,0.718404,0.625955,0.660797
0.823007,0.638195,0.718542,0.630945,0.659156
0.823113,0.641283,0.718681,0.635936,0.657514
0.823219,0.644370,0.718819,0.640926,0.655872
0.823326,0.647457,0.718957,0.645916,0.654230
0.823432,0.650544,0.719096,0.650906,0.652589
0.823538,0.653631,0.719234,0.655896,0.650947
0.823645,0.656719,0.719372,0.660886,0.649305
0.823751,0.659806,0.719511,0.665876,0.647663
0.823858,0.662893,0.719649,0.670866,0.646022
0.823964,0.665980,0.719787,0.675856,0.644380
0.824070,0.669068,0.719926,0.680846,0.642738
0.824049,0.672060,0.719923,0.685520,0.641356
0.823885,0.674945,0.719763,0.689840,0.640265
0.823578,0.677724,0.719443,0.693804,0.639466
0.823128,0.680396,0.718966,0.697413,0.638958
0.822535,0.682961,0.718330,0.700667,0.638743
0.821799,0.685420,0.717536,0.703566,0.638819
0.820919,0.687771,0.716584,0.706110,0.639186
0.819897,0.690016,0.715473,0.708298,0.639846
0.818731,0.692154,0.714205,0.710132,0.640797
0.817422,0.694185,0.712777,0.711610,0.642039
0.815970,0.696110,0.711192,0.712734,0.643574
0.814375,0.697927,0.709448,0.713502,0.645400
0.812637,0.699638,0.707546,0.713915,0.647518
0.810756,0.701242,0.705485,0.713973,0.649927
0.808732,0.702740,0.703266,0.713676,0.652628
0.806564,0.704130,0.700889,0.713023,0.655621
0.804254,0.705414,0.698354,0.712016,0.658906
0.801927,0.706686,0.695800,0.710969,0.662223
0.799601,0.707957,0.693247,0.709922,0.665540
0.797274,0.709229,0.690694,0.708876,0.668856
0.794948,0.710501,0.688141,0.707829,0.672173
0.792622,0.711773,0.685588,0.706782,0.675490
0.790295,0.713045,0.683035,0.705735,0.678807
0.787969,0.714317,0.680482,0.704688,0.682124
0.785642,0.715589,0.677929,0.703642,0.685441
0.783316,0.716861,0.675376,0.702595,0.688758
0.780990,0.718132,0.672823,0.701548,0.692075
0.778663,0.719404,0.670270,0.700501,0.695392
0.776337,0.720676,0.667717,0.699454,0.698709
0.774010,0.721948,0.665164,0.698408,0.702026
0.771684,0.723220,0.662611,0.697361,0.705343
0.769357,0.724492,0.660057,0.696314,0.708660
0.767031,0.725764,0.657504,0.695267,0.711977
0.764705,0.727035,0.654951,0.694220,0.715294
0.762378,0.728307,0.652398,0.693174,0.718611
0.760052,0.729579,0.649845,0.692127,0.721927
0.757725,0.730851,0.647292,0.691080,0.725244
0.755399,0.732123,0.644739,0.690033,0.728561
0.753073,0.733395,0.642186,0.688986,0.731878
0.750746,0.734667,0.639633,0.687940,0.735195
0.748420,0.735939,0.637080,0.686893,0.738512
0.746093,0.737210,0.634527,0.685846,0.741829
0.743767,0.738482,0.631974,0.684799,0.745146
0.741440,0.739754,0.629421,0.683752,0.748463
0.739114,0.741026,0.626867,0.682706,0.751780
0.736788,0.742298,0.624314,0.681659,0.755097
0.734461,0.743570,0.621761,0.680612,0.758414
0.732135,0.744842,0.619208,0.679565,0.761731
0.729808,0.746113,0.616655,0.678518,0.765048
0.727482,0.747385,0.614102,0.677471,0.768365
0.725156,0.748657,0.611549,0.676425,0.771682
0.722829,0.749929,0.608996,0.675378,0.774998
0.720503,0.751201,0.606443,0.674331,0.778315
0.718176,0.752473,0.603890,0.673284,0.781632
0.715850,0.753745,0.601337,0.672237,0.784949
0.713524,0.755017,0.598784,0.671191,0.788266
0.711197,0.756288,0.596231,0.670144,0.791583
0.708871,0.757560,0.593677,0.669097,0.794900
0.706544,0.758832,0.591124,0.668050,0.798217
0.704218,0.760104,0.588571,0.667003,0.801534
0.701891,0.761376,0.586018,0.665957,0.804851
0.699565,0.762648,0.583465,0.664910,0.808168
0.697239,0.763920,0.580912,0.663863,0.811485
0.694912,0.765191,0.578359,0.662816,0.814802
0.692586,0.766463,0.575806,0.661769,0.818119
0.690259,0.767735,0.573253,0.660723,0.821436
0.687933,0.769007,0.570700,0.659676,0.824753
0.685607,0.770279,0.568147,0.658629,0.828069
0.683280,0.771551,0.565594,0.657582,0.831386
0.680954,0.772823,0.563041,0.656535,0.834703
0.678627,0.774095,0.560487,0.655489,0.838020
0.676301,0.775366,0.557934,0.654442,0.841337
0.673974,0.776638,0.555381,0.653395,0.844654
0.671648,0.777910,0.552828,0.652348,0.847971
0.669322,0.779182,0.550275,0.651301,0.851288
0.666995,0.780454,0.547722,0.650255,0.854605
0.664669,0.781726,0.545169,0.649208,0.857922
0.662342,0.782998,0.542616,0.648161,0.861239
0.660016,0.784269,0.540063,0.647114,0.864556
0.657723,0.785403,0.537567,0.645972,0.867647
0.655533,0.786121,0.535241,0.644544,0.870062
0.653443,0.786423,0.533086,0.642831,0.871801
0.651455,0.786311,0.531101,0.640832,0.872862
0.649569,0.785783,0.529287,0.638547,0.873248
0.647785,0.784839,0.527643,0.635977,0.872957
0.646102,0.783480,0.526169,0.633121,0.871989
0.644520,0.781706,0.524867,0.629979,0.870345
0.643040,0.779516,0.523734,0.626552,0.868025
0.641662,0.776911,0.522772,0.622839,0.865028
0.640385,0.773890,0.521981,0.618840,0.861354
0.639210,0.770455,0.521360,0.614556,0.857004
0.638137,0.766603,0.520910,0.609986,0.851977
0.637165,0.762337,0.520630,0.605130,0.846274
0.636295,0.757654,0.520521,0.599989,0.839895
0.635526,0.752557,0.520582,0.594562,0.832839
0.634859,0.747044,0.520813,0.588849,0.825106
0.634259,0.741254,0.521158,0.582946,0.816923
0.633660,0.735465,0.521504,0.577043,0.808739
0.633060,0.729675,0.521849,0.571140,0.800555
0.632461,0.723885,0.522194,0.565237,0.792372
0.631862,0.718095,0.522539,0.559334,0.784188
0.631262,0.712306,0.522885,0.553431,0.776005
0.630663,0.706516,0.523230,0.547528,0.767821
0.630063,0.700726,0.523575,0.541625,0.759638
0.629464,0.694936,0.523920,0.535722,0.751454
0.628865,0.689147,0.524266,0.529818,0.743270
0.628265,0.683357,0.524611,0.523915,0.735087
0.627666,0.677567,0.524956,0.518012,0.726903
0.627066,0.671777,0.525301,0.512109,0.718720
0.626467,0.665987,0.525647,0.506206,0.710536
0.625868,0.660198,0.525992,0.500303,0.702353
0.625268,0.654408,0.526337,0.494400,0.694169
0.624669,0.648618,0.526682,0.488497,0.685985
0.624069,0.642828,0.527027,0.482594,0.677802
0.623470,0.637039,0.527373,0.476691,0.669618
0.622871,0.631249,0.527718,0.470788,0.661435
0.622271,0.625459,0.528063,0.464884,0.653251
0.621672,0.619669,0.528408,0.458981,0.645068
0.621072,0.613880,0.528754,0.453078,0.636884
0.620473,0.608090,0.529099,0.447175,0.628700
0.619874,0.602300,0.529444,0.441272,0.620517
0.619274,0.596510,0.529789,0.435369,0.612333
0.618675,0.590720,0.530135,0.429466,0.604150
0.618075,0.584931,0.530480,0.423563,0.595966
0.617476,0.579141,0.530825,0.417660,0.587783
0.616876,0.573351,0.531170,0.411757,0.579599
0.616277,0.567561,0.531516,0.405854,0.571415
0.615678,0.561772,0.531861,0.399950,0.563232
0.615078,0.555982,0.532206,0.394047,0.555048
0.614479,0.550192,0.532551,0.388144,0.546865
0.613879,0.544402,0.532897,0.382241,0.538681
0.613280,0.538613,0.533242,0.376338,0.530498
0.612681,0.532823,0.533587,0.370435,0.522314
0.612081,0.527033,0.533932,0.364532,0.514131
0.611482,0.521243,0.534277,0.358629,0.505947
0.610882,0.515454,0.534623,0.352726,0.497763
0.610283,0.509664,0.534968,0.346823,0.489580
0.609684,0.503874,0.535313,0.340920,0.481396
0.609084,0.498084,0.535658,0.335016,0.473213
0.608485,0.492294,0.536004,0.329113,0.465029
0.607885,0.486505,0.536349,0.323210,0.456846
0.607286,0.480715,0.536694,0.317307,0.448662
0.606687,0.474925,0.537039,0.311404,0.440478
0.606087,0.469135,0.537385,0.305501,0.432295
0.605488,0.463346,0.537730,0.299598,0.424111
0.604888,0.457556,0.538075,0.293695,0.415928
0.604289,0.451766,0.538420,0.287792,0.407744
0.603690,0.445976,0.538766,0.281889,0.399561
0.603090,0.440187,0.539111,0.275986,0.391377
0.602491,0.434397,0.539456,0.270082,0.383193
0.601891,0.428607,0.539801,0.264179,0.375010
0.601292,0.422817,0.540146,0.258276,0.366826
0.600692,0.417027,0.540492,0.252373,0.358643
0.600093,0.411238,0.540837,0.246470,0.350459
0.599494,0.405448,0.541182,0.240567,0.342276
0.598894,0.399658,0.541527,0.234664,0.334092
0.598295,0.393868,0.541873,0.228761,0.325908
0.597695,0.388079,0.542218,0.222858,0.317725
0.597096,0.382289,0.542563,0.216955,0.309541
0.596547,0.376931,0.542953,0.211640,0.301948
0.596062,0.372128,0.543400,0.207081,0.295113
0.595642,0.367880,0.543904,0.203278,0.289037
0.595287,0.364186,0.544465,0.200231,0.283719
0.594996,0.361048,0.545083,0.197940,0.279160
0.594770,0.358465,0.545759,0.196405,0.275360
0.594608,0.356437,0.546492,0.195627,0.272318
0.594511,0.354964,0.547281,0.195604,0.270035
0.594478,0.354046,0.548129,0.196338,0.268511
0.594511,0.353683,0.549033,0.197827,0.267745
0.594607,0.353875,0.549994,0.200073,0.267738
0.594768,0.354622,0.551013,0.203075,0.268489
0.594994,0.355924,0.552088,0.206832,0.269999
0.595285,0.357780,0.553221,0.211346,0.272268
0.595640,0.360192,0.554411,0.216616,0.275296
0.596059,0.363159,0.555659,0.222642,0.279082
0.596543,0.366681,0.556963,0.229424,0.283626
0.597042,0.370326,0.558280,0.236374,0.288340
0.597540,0.373972,0.559597,0.243324,0.293053
0.598039,0.377617,0.560914,0.250274,0.297766
0.598537,0.381262,0.562231,0.257224,0.302480
0.599036,0.384907,0.563549,0.264174,0.307193
0.599534,0.388552,0.564866,0.271124,0.311906
0.600033,0.392198,0.566183,0.278074,0.316619
0.600531,0.395843,0.567500,0.285024,0.321333
0.601030,0.399488,0.568817,0.291974,0.326046
0.601528,0.403133,0.570134,0.298924,0.330759
0.602027,0.406779,0.571451,0.305874,0.335473
0.602525,0.410424,0.572768,0.312824,0.340186
0.603024,0.414069,0.574085,0.319774,0.344899
0.603522,0.417714,0.575403,0.326724,0.349612
0.604021,0.421360,0.576720,0.333675,0.354326
0.604519,0.425005,0.578037,0.340625,0.359039
0.605018,0.428650,0.579354,0.347575,0.363752
0.605516,0.432295,0.580671,0.354525,0.368466
0.606015,0.435940,0.581988,0.361475,0.373179
0.606513,0.439586,0.583305,0.368425,0.377892
0.607012,0.443231,0.584622,0.375375,0.382605
0.607510,0.446876,0.585939,0.382325,0.387319
0.608009,0.450521,0.587257,0.389275,0.392032
0.608507,0.454167,0.588574,0.396225,0.396745
0.609006,0.457812,0.589891,0.403175,0.401459
0.609504,0.461457,0.591208,0.410125,0.406172
0.610003,0.465102,0.592525,0.417075,0.410885
0.610501,0.468747,0.593842,0.424025,0.415598
0.611000,0.472393,0.595159,0.430975,0.420312
0.611498,0.476038,0.596476,0.437925,0.425025
0.611997,0.479683,0.597793,0.444875,0.429738
0.612495,0.483328,0.599111,0.451825,0.434452
0.612994,0.486974,0.600428,0.458775,0.439165
0.613492,0.490619,0.601745,0.465725,0.443878
0.613991,0.494264,0.603062,0.472675,0.448591
0.614489,0.497909,0.604379,0.479625,0.453305
0.614988,0.501555,0.605696,0.486575,0.458018
0.615486,0.505200,0.607013,0.493525,0.462731
0.615985,0.508845,0.608330,0.500475,0.467445
0.616483,0.512490,0.609647,0.507425,0.472158
0.616982,0.516135,0.610965,0.514375,0.476871
0.617480,0.519781,0.612282,0.521325,0.481584
0.617979,0.523426,0.613599,0.528275,0.486298
0.618477,0.527071,0.614916,0.535225,0.491011
0.618976,0.530716,0.616233,0.542176,0.495724
0.619474,0.534362,0.617550,0.549126,0.500438
0.619973,0.538007,0.618867,0.556076,0.505151
0.620471,0.541652,0.620184,0.563026,0.509864
0.620970,0.545297,0.621501,0.569976,0.514577
0.621468,0.548942,0.622819,0.576926,0.519291
0.621967,0.552588,0.624136,0.583876,0.524004
0.622465,0.556233,0.625453,0.590826,0.528717
0.622964,0.559878,0.626770,0.597776,0.533431
0.623462,0.563523,0.628087,0.604726,0.538144
0.623961,0.567169,0.629404,0.611676,0.542857
0.624459,0.570814,0.630721,0.618626,0.547570
0.624958,0.574459,0.632038,0.625576,0.552284
0.625456,0.578104,0.633355,0.632526,0.556997
0.625955,0.581750,0.634673,0.639476,0.561710
0.626453,0.585395,0.635990,0.646426,0.566424
0.626952,0.589040,0.637307,0.653376,0.571137
0.627450,0.592685,0.638624,0.660326,0.575850
0.627930,0.596267,0.639861,0.667118,0.580487
0.628321,0.599562,0.640739,0.673200,0.584778
0.628626,0.602572,0.641257,0.678570,0.588723
0.628843,0.605295,0.641416,0.683231,0.592323
0.628973,0.607732,0.641216,0.687180,0.595577
0.629015,0.609884,0.640656,0.690419,0.598486
0.628970,0.611749,0.639736,0.692947,0.601049
0.628838,0.613327,0.638458,0.694765,0.603267
0.628619,0.614620,0.636819,0.695871,0.605139
0.628312,0.615627,0.634822,0.696268,0.606666
0.627918,0.616347,0.632465,0.695953,0.607847
0.627437,0.616782,0.629748,0.694928,0.608683
0.626868,0.616930,0.626672,0.693192,0.609173
0.626212,0.616793,0.623237,0.690746,0.609317
0.625468,0.616369,0.619442,0.687589,0.609116
0.624638,0.615659,0.615288,0.683721,0.608569
0.623720,0.614663,0.610774,0.679142,0.607677
0.622734,0.613444,0.605981,0.674011,0.606516
0.621748,0.612226,0.601188,0.668880,0.605356
0.620762,0.611007,0.596394,0.663749,0.604195
0.619776,0.609788,0.591601,0.658618,0.603034
0.618790,0.608570,0.586808,0.653487,0.601873
0.617804,0.607351,0.582015,0.648356,0.600712
0.616818,0.606133,0.577222,0.643224,0.599551
0.615832,0.604914,0.572428,0.638093,0.598390
0.614846,0.603696,0.567635,0.632962,0.597229
0.613861,0.602477,0.562842,0.627831,0.596068
0.612875,0.601258,0.558049,0.622700,0.594908
0.611889,0.600040,0.553255,0.617569,0.593747
0.610903,0.598821,0.548462,0.612437,0.592586
0.609917,0.597603,0.543669,0.607306,0.591425
0.608931,0.596384,0.538876,0.602175,0.590264
0.607945,0.595165,0.534083,0.597044,0.589103
0.606959,0.593947,0.529289,0.591913,0.587942
0.605973,0.592728,0.524496,0.586782,0.586781
0.604987,0.591510,0.519703,0.581651,0.585621
0.604001,0.590291,0.514910,0.576519,0.584460
0.603015,0.589073,0.510116,0.571388,0.583299
0.602030,0.587854,0.505323,0.566257,0.582138
0.601044,0.586635,0.500530,0.561126,0.580977
0.600058,0.585417,0.495737,0.555995,0.579816
0.599072,0.584198,0.490944,0.550864,0.578655
0.598086,0.582980,0.486150,0.545733,0.577494
