density,loudness,brightness,roughness,speed
0.882795,0.540420,0.697754,0.250269,0.353319
0.880541,0.541141,0.695027,0.253906,0.351901
0.878037,0.541942,0.691996,0.257947,0.350325
0.875284,0.542823,0.688663,0.262392,0.348592
0.872280,0.543785,0.685028,0.267240,0.346702
0.869026,0.544826,0.681089,0.272492,0.344654
0.865521,0.545947,0.676848,0.278147,0.342449
0.861767,0.547149,0.672305,0.284206,0.340087
0.857763,0.548430,0.667459,0.290668,0.337567
0.853509,0.549791,0.662310,0.297534,0.334890
0.849252,0.551153,0.657158,0.304405,0.332211
0.844994,0.552516,0.652005,0.311276,0.329533
0.840737,0.553878,0.646853,0.318146,0.326854
0.836480,0.555240,0.641701,0.325017,0.324175
0.832223,0.556602,0.636548,0.331888,0.321496
0.827965,0.557965,0.631396,0.338758,0.318817
0.823708,0.559327,0.626243,0.345629,0.316138
0.819451,0.560689,0.621091,0.352500,0.313459
0.815194,0.562052,0.615939,0.359371,0.310780
0.810937,0.563414,0.610786,0.366241,0.308101
0.806679,0.564776,0.605634,0.373112,0.305423
0.802422,0.566138,0.600482,0.379983,0.302744
0.798165,0.567501,0.595329,0.386853,0.300065
0.793908,0.568863,0.590177,0.393724,0.297386
0.789650,0.570225,0.585024,0.400595,0.294707
0.785393,0.571587,0.579872,0.407466,0.292028
0.781136,0.572950,0.574720,0.414336,0.289349
0.776879,0.574312,0.569567,0.421207,0.286670
0.772622,0.575674,0.564415,0.428078,0.283991
0.768364,0.577036,0.559263,0.434949,0.281313
0.764107,0.578399,0.554110,0.441819,0.278634
0.759850,0.579761,0.548958,0.448690,0.275955
0.755593,0.581123,0.543805,0.455561,0.273276
0.751335,0.582485,0.538653,0.462431,0.270597
0.747078,0.583848,0.533501,0.469302,0.267918
0.742821,0.585210,0.528348,0.476173,0.265239
0.738564,0.586572,0.523196,0.483044,0.262560
0.734306,0.587934,0.518043,0.489914,0.259881
0.730049,0.589297,0.512891,0.496785,0.257203
0.725792,0.590659,0.507739,0.503656,0.254524
0.721535,0.592021,0.502586,0.510526,0.251845
0.717278,0.593384,0.497434,0.517397,0.249166
0.713020,0.594746,0.492282,0.524268,0.246487
0.708763,0.596108,0.487129,0.531139,0.243808
0.704506,0.597470,0.481977,0.538009,0.241129
0.700249,0.598833,0.476824,0.544880,0.238450
0.695991,0.600195,0.471672,0.551751,0.235772
0.691734,0.601557,0.466520,0.558622,0.233093
0.687477,0.602919,0.461367,0.565492,0.230414
0.683220,0.604282,0.456215,0.572363,0.227735
0.678963,0.605644,0.451063,0.579234,0.225056
0.674705,0.607006,0.445910,0.586104,0.222377
0.670448,0.608368,0.440758,0.592975,0.219698
0.666191,0.609731,0.435605,0.599846,0.217019
0.661934,0.611093,0.430453,0.606717,0.214340
0.657676,0.612455,0.425301,0.613587,0.211662
0.653419,0.613817,0.420148,0.620458,0.208983
0.649162,0.615180,0.414996,0.627329,0.206304
0.644905,0.616542,0.409844,0.634200,0.203625
0.640648,0.617904,0.404691,0.641070,0.200946
0.636390,0.619267,0.399539,0.647941,0.198267
0.632133,0.620629,0.394386,0.654812,0.195588
0.627876,0.621991,0.389234,0.661682,0.192909
0.623619,0.623353,0.384082,0.668553,0.190230
0.619361,0.624716,0.378929,0.675424,0.187552
0.615104,0.626078,0.373777,0.682295,0.184873
0.610847,0.627440,0.368625,0.689165,0.182194
0.606590,0.628802,0.363472,0.696036,0.179515
0.602262,0.629834,0.358702,0.702190,0.177154
0.597856,0.630500,0.354356,0.707549,0.175145
0.593371,0.630799,0.350434,0.712113,0.173489
0.588808,0.630731,0.346935,0.715883,0.172185
0.584167,0.630298,0.343861,0.718857,0.171233
0.579447,0.629498,0.341210,0.721037,0.170634
0.574650,0.628331,0.338983,0.722423,0.170387
0.569773,0.626798,0.337180,0.723013,0.170492
0.564819,0.624899,0.335801,0.722809,0.170950
0.559786,0.622634,0.334845,0.721810,0.171759
0.554675,0.620002,0.334314,0.720016,0.172922
0.549485,0.617004,0.334206,0.717428,0.174436
0.544217,0.613639,0.334523,0.714045,0.176303
0.538871,0.609908,0.335263,0.709866,0.178523
0.533447,0.605811,0.336427,0.704894,0.181094
0.527944,0.601347,0.338015,0.699126,0.184018
0.522363,0.596517,0.340026,0.692564,0.187295
0.516772,0.591642,0.342090,0.685904,0.190614
0.511181,0.586767,0.344154,0.679244,0.193934
0.505590,0.581891,0.346218,0.672584,0.197254
0.499999,0.577016,0.348282,0.665923,0.200574
0.494409,0.572141,0.350346,0.659263,0.203893
0.488818,0.567266,0.352409,0.652603,0.207213
0.483227,0.562391,0.354473,0.645943,0.210533
0.477636,0.557516,0.356537,0.639283,0.213852
0.472045,0.552640,0.358601,0.632623,0.217172
0.466454,0.547765,0.360665,0.625963,0.220492
0.460864,0.542890,0.362729,0.619302,0.223812
0.455273,0.538015,0.364793,0.612642,0.227131
0.449682,0.533140,0.366857,0.605982,0.230451
0.444091,0.528264,0.368920,0.599322,0.233771
0.438500,0.523389,0.370984,0.592662,0.237090
0.432909,0.518514,0.373048,0.586002,0.240410
0.427319,0.513639,0.375112,0.579342,0.243730
0.421728,0.508764,0.377176,0.572681,0.247049
0.416137,0.503889,0.379240,0.566021,0.250369
0.410546,0.499013,0.381304,0.559361,0.253689
0.404955,0.494138,0.383368,0.552701,0.257009
0.399365,0.489263,0.385431,0.546041,0.260328
0.393774,0.484388,0.387495,0.539381,0.263648
0.388183,0.479513,0.389559,0.532721,0.266968
0.382592,0.474638,0.391623,0.526060,0.270287
0.377001,0.469762,0.393687,0.519400,0.273607
0.371410,0.464887,0.395751,0.512740,0.276927
0.365820,0.460012,0.397815,0.506080,0.280247
0.360229,0.455137,0.399879,0.499420,0.283566
0.354638,0.450262,0.401942,0.492760,0.286886
0.349047,0.445386,0.404006,0.486100,0.290206
0.343456,0.440511,0.406070,0.479439,0.293525
0.337865,0.435636,0.408134,0.472779,0.296845
0.332275,0.430761,0.410198,0.466119,0.300165
0.326684,0.425886,0.412262,0.459459,0.303485
0.321093,0.421011,0.414326,0.452799,0.306804
0.315502,0.416135,0.416390,0.446139,0.310124
0.309911,0.411260,0.418453,0.439479,0.313444
0.304321,0.406385,0.420517,0.432818,0.316763
0.298730,0.401510,0.422581,0.426158,0.320083
0.293139,0.396635,0.424645,0.419498,0.323403
0.287548,0.391760,0.426709,0.412838,0.326723
0.281957,0.386884,0.428773,0.406178,0.330042
0.276366,0.382009,0.430837,0.399518,0.333362
0.270776,0.377134,0.432901,0.392858,0.336682
0.265185,0.372259,0.434964,0.386197,0.340001
0.259594,0.367384,0.437028,0.379537,0.343321
0.254003,0.362509,0.439092,0.372877,0.346641
0.248412,0.357633,0.441156,0.366217,0.349961
0.242821,0.352758,0.443220,0.359557,0.353280
0.237231,0.347883,0.445284,0.352897,0.356600
0.231640,0.343008,0.447348,0.346237,0.359920
0.226049,0.338133,0.449412,0.339576,0.363239
0.220458,0.333257,0.451475,0.332916,0.366559
0.214867,0.328382,0.453539,0.326256,0.369879
0.209276,0.323507,0.455603,0.319596,0.373199
0.203686,0.318632,0.457667,0.312936,0.376518
0.198095,0.313757,0.459731,0.306276,0.379838
0.193024,0.309211,0.461699,0.299881,0.383245
0.188609,0.305081,0.463546,0.293823,0.386761
0.184852,0.301367,0.465271,0.288100,0.390388
0.181751,0.298070,0.466875,0.282714,0.394124
0.179308,0.295189,0.468358,0.277663,0.397971
0.177522,0.292724,0.469720,0.272948,0.401927
0.176392,0.290676,0.470960,0.268569,0.405993
0.175920,0.289043,0.472079,0.264526,0.410170
0.176104,0.287827,0.473077,0.260819,0.414456
0.176946,0.287027,0.473954,0.257448,0.418852
0.178444,0.286644,0.474709,0.254413,0.423358
0.180599,0.286677,0.475344,0.251714,0.427974
0.183412,0.287125,0.475856,0.249351,0.432700
0.186881,0.287991,0.476248,0.247324,0.437536
0.191007,0.289272,0.476518,0.245632,0.442482
0.195791,0.290969,0.476667,0.244277,0.447538
0.201231,0.293083,0.476695,0.243258,0.452704
0.206825,0.295295,0.476695,0.242317,0.457895
0.212419,0.297506,0.476694,0.241376,0.463087
0.218013,0.299718,0.476693,0.240436,0.468279
0.223608,0.301929,0.476693,0.239495,0.473470
0.229202,0.304140,0.476692,0.238554,0.478662
0.234796,0.306352,0.476692,0.237614,0.483853
0.240390,0.308563,0.476691,0.236673,0.489045
0.245985,0.310775,0.476690,0.235732,0.494237
0.251579,0.312986,0.476690,0.234792,0.499428
0.257173,0.315197,0.476689,0.233851,0.504620
0.262767,0.317409,0.476688,0.232910,0.509811
0.268362,0.319620,0.476688,0.231970,0.515003
0.273956,0.321832,0.476687,0.231029,0.520194
0.279550,0.324043,0.476687,0.230088,0.525386
0.285144,0.326255,0.476686,0.229148,0.530578
0.290738,0.328466,0.476685,0.228207,0.535769
0.296333,0.330677,0.476685,0.227266,0.540961
0.301927,0.332889,0.476684,0.226326,0.546152
0.307521,0.335100,0.476684,0.225385,0.551344
0.313115,0.337312,0.476683,0.224444,0.556536
0.318710,0.339523,0.476682,0.223503,0.561727
0.324304,0.341735,0.476682,0.222563,0.566919
0.329898,0.343946,0.476681,0.221622,0.572110
0.335492,0.346157,0.476681,0.220681,0.577302
0.341087,0.348369,0.476680,0.219741,0.582493
0.346681,0.350580,0.476679,0.218800,0.587685
0.352275,0.352792,0.476679,0.217859,0.592877
0.357869,0.355003,0.476678,0.216919,0.598068
0.363463,0.357214,0.476677,0.215978,0.603260
0.369058,0.359426,0.476677,0.215037,0.608451
0.374652,0.361637,0.476676,0.214097,0.613643
0.380246,0.363849,0.476676,0.213156,0.618835
0.385840,0.366060,0.476675,0.212215,0.624026
0.391435,0.368272,0.476674,0.211275,0.629218
0.397029,0.370483,0.476674,0.210334,0.634409
0.402623,0.372694,0.476673,0.209393,0.639601
0.408217,0.374906,0.476673,0.208453,0.644792
0.413812,0.377117,0.476672,0.207512,0.649984
0.419406,0.379329,0.476671,0.206571,0.655176
0.425000,0.381540,0.476671,0.205631,0.660367
0.430594,0.383751,0.476670,0.204690,0.665559
0.436189,0.385963,0.476670,0.203749,0.670750
0.441783,0.388174,0.476669,0.202809,0.675942
0.447377,0.390386,0.476668,0.201868,0.681133
0.452971,0.392597,0.476668,0.200927,0.686325
0.458565,0.394809,0.476667,0.199987,0.691517
0.464160,0.397020,0.476666,0.199046,0.696708
0.469754,0.399231,0.476666,0.198105,0.701900
0.475348,0.401443,0.476665,0.197165,0.707091
0.480942,0.403654,0.476665,0.196224,0.712283
0.486537,0.405866,0.476664,0.195283,0.717475
0.492131,0.408077,0.476663,0.194343,0.722666
0.497725,0.410288,0.476663,0.193402,0.727858
0.503319,0.412500,0.476662,0.192461,0.733049
0.508914,0.414711,0.476662,0.191521,0.738241
0.514508,0.416923,0.476661,0.190580,0.743432
0.520102,0.419134,0.476660,0.189639,0.748624
0.525696,0.421346,0.476660,0.188699,0.753816
0.531234,0.423593,0.476586,0.187877,0.758685
0.536688,0.425894,0.476405,0.187231,0.763082
0.542058,0.428248,0.476116,0.186760,0.767004
0.547345,0.430655,0.475720,0.186465,0.770453
0.552548,0.433116,0.475217,0.186345,0.773429
0.557668,0.435629,0.474606,0.186401,0.775930
0.562704,0.438196,0.473887,0.186632,0.777959
0.567656,0.440816,0.473061,0.187038,0.779513
0.572525,0.443490,0.472128,0.187620,0.780594
0.577311,0.446216,0.471087,0.188377,0.781202
0.582013,0.448996,0.469938,0.189310,0.781335
0.586631,0.451829,0.468682,0.190418,0.780996
0.591166,0.454715,0.467319,0.191701,0.780182
0.595617,0.457654,0.465848,0.193160,0.778895
0.599985,0.460647,0.464269,0.194794,0.777135
0.604269,0.463693,0.462583,0.196604,0.774901
0.608469,0.466792,0.460790,0.198589,0.772193
0.612641,0.469909,0.458960,0.200634,0.769321
0.616813,0.473027,0.457129,0.202680,0.766450
0.620985,0.476144,0.455299,0.204726,0.763578
0.625156,0.479262,0.453468,0.206771,0.760707
0.629328,0.482379,0.451637,0.208817,0.757836
0.633500,0.485497,0.449807,0.210863,0.754964
0.637671,0.488614,0.447976,0.212908,0.752093
0.641843,0.491732,0.446146,0.214954,0.749221
0.646015,0.494849,0.444315,0.217000,0.746350
0.650186,0.497967,0.442485,0.219045,0.743478
0.654358,0.501084,0.440654,0.221091,0.740607
0.658530,0.504201,0.438824,0.223137,0.737735
0.662701,0.507319,0.436993,0.225182,0.734864
0.666873,0.510436,0.435163,0.227228,0.731992
0.671045,0.513554,0.433332,0.229274,0.729121
0.675216,0.516671,0.431502,0.231319,0.726249
0.679388,0.519789,0.429671,0.233365,0.723378
0.683560,0.522906,0.427841,0.235411,0.720506
0.687732,0.526024,0.426010,0.237456,0.717635
0.691903,0.529141,0.424180,0.239502,0.714764
0.696075,0.532259,0.422349,0.241548,0.711892
0.700247,0.535376,0.420518,0.243593,0.709021
0.704418,0.538494,0.418688,0.245639,0.706149
0.708590,0.541611,0.416857,0.247685,0.703278
0.712762,0.544728,0.415027,0.249730,0.700406
0.716933,0.547846,0.413196,0.251776,0.697535
0.721105,0.550963,0.411366,0.253822,0.694663
0.725277,0.554081,0.409535,0.255867,0.691792
0.729448,0.557198,0.407705,0.257913,0.688920
0.733620,0.560316,0.405874,0.259959,0.686049
0.737792,0.563433,0.404044,0.262004,0.683177
0.741963,0.566551,0.402213,0.264050,0.680306
0.746135,0.569668,0.400383,0.266095,0.677435
0.750307,0.572786,0.398552,0.268141,0.674563
0.754479,0.575903,0.396722,0.270187,0.671692
0.758650,0.579020,0.394891,0.272232,0.668820
0.762822,0.582138,0.393061,0.274278,0.665949
0.766994,0.585255,0.391230,0.276324,0.663077
0.771165,0.588373,0.389400,0.278369,0.660206
0.775337,0.591490,0.387569,0.280415,0.657334
0.779509,0.594608,0.385738,0.282461,0.654463
0.783680,0.597725,0.383908,0.284506,0.651591
0.787852,0.600843,0.382077,0.286552,0.648720
0.792024,0.603960,0.380247,0.288598,0.645848
0.796195,0.607078,0.378416,0.290643,0.642977
0.800367,0.610195,0.376586,0.292689,0.640106
0.804539,0.613312,0.374755,0.294735,0.637234
0.808710,0.616430,0.372925,0.296780,0.634363
0.812882,0.619547,0.371094,0.298826,0.631491
0.817054,0.622665,0.369264,0.300872,0.628620
0.821226,0.625782,0.367433,0.302917,0.625748
0.825397,0.628900,0.365603,0.304963,0.622877
0.829569,0.632017,0.363772,0.307009,0.620005
0.833741,0.635135,0.361942,0.309054,0.617134
0.837912,0.638252,0.360111,0.311100,0.614262
0.842084,0.641370,0.358281,0.313146,0.611391
0.846256,0.644487,0.356450,0.315191,0.608519
0.850427,0.647604,0.354619,0.317237,0.605648
0.854396,0.650531,0.352826,0.319446,0.602821
0.858007,0.653122,0.351098,0.321943,0.600072
0.861261,0.655377,0.349435,0.324729,0.597402
0.864157,0.657297,0.347837,0.327802,0.594809
0.866696,0.658880,0.346305,0.331163,0.592295
0.868878,0.660128,0.344838,0.334812,0.589860
0.870702,0.661040,0.343436,0.338748,0.587502
0.872169,0.661617,0.342100,0.342973,0.585223
0.873278,0.661858,0.340828,0.347486,0.583022
0.874030,0.661763,0.339622,0.352287,0.580899
0.874424,0.661332,0.338482,0.357375,0.578854
0.874461,0.660565,0.337406,0.362752,0.576888
0.874141,0.659463,0.336396,0.368416,0.575000
0.873463,0.658025,0.335451,0.374369,0.573190
0.872428,0.656251,0.334571,0.380609,0.571459
0.871036,0.654142,0.333757,0.387137,0.569805
0.869286,0.651696,0.333008,0.393953,0.568230
0.867372,0.649098,0.332289,0.400901,0.566691
0.865459,0.646499,0.331569,0.407849,0.565151
0.863546,0.643900,0.330850,0.414796,0.563612
0.861632,0.641301,0.330131,0.421744,0.562073
0.859719,0.638703,0.329411,0.428692,0.560533
0.857806,0.636104,0.328692,0.435640,0.558994
0.855892,0.633505,0.327973,0.442587,0.557455
0.853979,0.630907,0.327254,0.449535,0.555915
0.852066,0.628308,0.326534,0.456483,0.554376
0.850153,0.625709,0.325815,0.463431,0.552837
0.848239,0.623110,0.325096,0.470378,0.551297
0.846326,0.620512,0.324376,0.477326,0.549758
0.844413,0.617913,0.323657,0.484274,0.548218
0.842499,0.615314,0.322938,0.491222,0.546679
0.840586,0.612716,0.322219,0.498169,0.545140
0.838673,0.610117,0.321499,0.505117,0.543600
0.836759,0.607518,0.320780,0.512065,0.542061
0.834846,0.604919,0.320061,0.519013,0.540522
0.832933,0.602321,0.319342,0.525960,0.538982
0.831019,0.599722,0.318622,0.532908,0.537443
0.829106,0.597123,0.317903,0.539856,0.535904
0.827193,0.594525,0.317184,0.546804,0.534364
0.825280,0.591926,0.316464,0.553751,0.532825
0.823366,0.589327,0.315745,0.560699,0.531286
0.821453,0.586728,0.315026,0.567647,0.529746
0.819540,0.584130,0.314307,0.574595,0.528207
0.817626,0.581531,0.313587,0.581542,0.526668
0.815713,0.578932,0.312868,0.588490,0.525128
0.813800,0.576334,0.312149,0.595438,0.523589
0.811886,0.573735,0.311429,0.602386,0.522049
0.809973,0.571136,0.310710,0.609333,0.520510
0.808060,0.568537,0.309991,0.616281,0.518971
0.806147,0.565939,0.309272,0.623229,0.517431
0.804233,0.563340,0.308552,0.630177,0.515892
0.802320,0.560741,0.307833,0.637124,0.514353
0.800407,0.558143,0.307114,0.644072,0.512813
0.798493,0.555544,0.306394,0.651020,0.511274
0.796580,0.552945,0.305675,0.657968,0.509735
0.794667,0.550347,0.304956,0.664915,0.508195
0.792753,0.547748,0.304237,0.671863,0.506656
0.790840,0.545149,0.303517,0.678811,0.505117
0.788927,0.542550,0.302798,0.685758,0.503577
0.787014,0.539952,0.302079,0.692706,0.502038
0.785100,0.537353,0.301360,0.699654,0.500499
0.783187,0.534754,0.300640,0.706602,0.498959
0.781274,0.532156,0.299921,0.713549,0.497420
0.779360,0.529557,0.299202,0.720497,0.495880
0.777447,0.526958,0.298482,0.727445,0.494341
0.775534,0.524359,0.297763,0.734393,0.492802
0.773620,0.521761,0.297044,0.741340,0.491262
0.771707,0.519162,0.296325,0.748288,0.489723
0.769794,0.516563,0.295605,0.755236,0.488184
0.767880,0.513965,0.294886,0.762184,0.486644
0.765967,0.511366,0.294167,0.769131,0.485105
0.764054,0.508767,0.293447,0.776079,0.483566
0.762141,0.506168,0.292728,0.783027,0.482026
0.760227,0.503570,0.292009,0.789975,0.480487
0.758314,0.500971,0.291290,0.796922,0.478948
0.756374,0.498405,0.290629,0.803412,0.477608
0.754375,0.495911,0.290095,0.808899,0.476706
0.752318,0.493490,0.289690,0.813384,0.476242
0.750203,0.491140,0.289411,0.816866,0.476215
0.748028,0.488862,0.289261,0.819345,0.476626
0.745796,0.486656,0.289238,0.820822,0.477474
0.743504,0.484522,0.289343,0.821296,0.478760
0.741155,0.482461,0.289575,0.820768,0.480484
0.738746,0.480471,0.289935,0.819238,0.482644
0.736279,0.478553,0.290422,0.816704,0.485243
0.733754,0.476707,0.291037,0.813169,0.488279
0.731170,0.474933,0.291780,0.808630,0.491752
0.728528,0.473232,0.292650,0.803089,0.495664
0.725827,0.471602,0.293648,0.796546,0.500012
0.723067,0.470044,0.294774,0.789000,0.504798
0.720249,0.468558,0.296027,0.780452,0.510022
0.717372,0.467144,0.297408,0.770901,0.515683
0.714463,0.465772,0.298861,0.760780,0.521593
0.711553,0.464399,0.300314,0.750659,0.527503
0.708643,0.463026,0.301768,0.740539,0.533413
0.705733,0.461653,0.303221,0.730418,0.539323
0.702823,0.460280,0.304674,0.720297,0.545233
0.699913,0.458907,0.306127,0.710177,0.551143
0.697003,0.457534,0.307581,0.700056,0.557052
0.694094,0.456162,0.309034,0.689935,0.562962
0.691184,0.454789,0.310487,0.679815,0.568872
0.688274,0.453416,0.311940,0.669694,0.574782
0.685364,0.452043,0.313394,0.659573,0.580692
0.682454,0.450670,0.314847,0.649453,0.586602
0.679544,0.449297,0.316300,0.639332,0.592512
0.676634,0.447924,0.317753,0.629211,0.598422
0.673724,0.446551,0.319207,0.619091,0.604331
0.670815,0.445179,0.320660,0.608970,0.610241
0.667905,0.443806,0.322113,0.598849,0.616151
0.664995,0.442433,0.323566,0.588729,0.622061
0.662085,0.441060,0.325020,0.578608,0.627971
0.659175,0.439687,0.326473,0.568487,0.633881
0.656265,0.438314,0.327926,0.558367,0.639791
0.653355,0.436941,0.329379,0.548246,0.645701
0.650446,0.435569,0.330833,0.538125,0.651611
0.647536,0.434196,0.332286,0.528005,0.657520
0.644626,0.432823,0.333739,0.517884,0.663430
0.641716,0.431450,0.335193,0.507763,0.669340
0.638806,0.430077,0.336646,0.497642,0.675250
0.635896,0.428704,0.338099,0.487522,0.681160
0.632986,0.427331,0.339552,0.477401,0.687070
0.630076,0.425958,0.341006,0.467280,0.692980
0.627167,0.424586,0.342459,0.457160,0.698890
0.624257,0.423213,0.343912,0.447039,0.704799
0.621347,0.421840,0.345365,0.436918,0.710709
0.618437,0.420467,0.346819,0.426798,0.716619
0.615527,0.419094,0.348272,0.416677,0.722529
0.612617,0.417721,0.349725,0.406556,0.728439
0.609707,0.416348,0.351178,0.396436,0.734349
0.606798,0.414976,0.352632,0.386315,0.740259
0.603888,0.413603,0.354085,0.376194,0.746169
0.600978,0.412230,0.355538,0.366074,0.752079
0.598068,0.410857,0.356991,0.355953,0.757988
0.595158,0.409484,0.358445,0.345832,0.763898
0.592248,0.408111,0.359898,0.335712,0.769808
0.589338,0.406738,0.361351,0.325591,0.775718
0.586429,0.405365,0.362804,0.315470,0.781628
0.583519,0.403993,0.364258,0.305350,0.787538
0.580609,0.402620,0.365711,0.295229,0.793448
0.577699,0.401247,0.367164,0.285108,0.799358
