density,loudness,brightness,roughness,speed
0.163598,0.335937,0.581583,0.548945,0.803495
0.163992,0.337195,0.582154,0.548686,0.799727
0.164430,0.338593,0.582788,0.548398,0.795541
0.164913,0.340131,0.583486,0.548081,0.790936
0.165439,0.341809,0.584248,0.547736,0.785912
0.166009,0.343627,0.585072,0.547361,0.780470
0.166622,0.345584,0.585961,0.546958,0.774609
0.167280,0.347682,0.586913,0.546526,0.768330
0.167981,0.349919,0.587928,0.546065,0.761632
0.168726,0.352296,0.589007,0.545576,0.754515
0.169471,0.354673,0.590085,0.545086,0.747399
0.170217,0.357050,0.591164,0.544596,0.740282
0.170962,0.359427,0.592243,0.544107,0.733165
0.171707,0.361804,0.593321,0.543617,0.726049
0.172452,0.364181,0.594400,0.543128,0.718932
0.173197,0.366558,0.595479,0.542638,0.711815
0.173943,0.368935,0.596557,0.542149,0.704699
0.174688,0.371312,0.597636,0.541659,0.697582
0.175433,0.373689,0.598715,0.541169,0.690465
0.176178,0.376066,0.599793,0.540680,0.683348
0.176923,0.378443,0.600872,0.540190,0.676232
0.177669,0.380820,0.601951,0.539701,0.669115
0.178414,0.383197,0.603029,0.539211,0.661998
0.179159,0.385574,0.604108,0.538721,0.654882
0.179904,0.387951,0.605187,0.538232,0.647765
0.180649,0.390328,0.606266,0.537742,0.640648
0.181395,0.392705,0.607344,0.537253,0.633532
0.182140,0.395082,0.608423,0.536763,0.626415
0.182885,0.397459,0.609502,0.536273,0.619298
0.183630,0.399836,0.610580,0.535784,0.612182
0.184375,0.402213,0.611659,0.535294,0.605065
0.185121,0.404590,0.612738,0.534805,0.597948
0.185866,0.406967,0.613816,0.534315,0.590832
0.186611,0.409344,0.614895,0.533826,0.583715
0.187356,0.411721,0.615974,0.533336,0.576598
0.188101,0.414098,0.617052,0.532846,0.569482
0.188846,0.416475,0.618131,0.532357,0.562365
0.189592,0.418852,0.619210,0.531867,0.555248
0.190337,0.421229,0.620289,0.531378,0.548132
0.191082,0.423606,0.621367,0.530888,0.541015
0.191827,0.425983,0.622446,0.530398,0.533898
0.192572,0.428360,0.623525,0.529909,0.526782
0.193318,0.430737,0.624603,0.529419,0.519665
0.194063,0.433114,0.625682,0.528930,0.512548
0.194808,0.435491,0.626761,0.528440,0.505432
0.195553,0.437868,0.627839,0.527950,0.498315
0.196298,0.440245,0.628918,0.527461,0.491198
0.197044,0.442622,0.629997,0.526971,0.484082
0.197789,0.444999,0.631075,0.526482,0.476965
0.198534,0.447376,0.632154,0.525992,0.469848
0.199279,0.449753,0.633233,0.525503,0.462732
0.200024,0.452130,0.634311,0.525013,0.455615
0.200770,0.454507,0.635390,0.524523,0.448498
0.201515,0.456884,0.636469,0.524034,0.441382
0.202260,0.459261,0.637548,0.523544,0.434265
0.203005,0.461638,0.638626,0.523055,0.427148
0.203750,0.464015,0.639705,0.522565,0.420031
0.204496,0.466392,0.640784,0.522075,0.412915
0.205241,0.468769,0.641862,0.521586,0.405798
0.205986,0.471146,0.642941,0.521096,0.398681
0.206731,0.473523,0.644020,0.520607,0.391565
0.207476,0.475900,0.645098,0.520117,0.384448
0.208221,0.478277,0.646177,0.519627,0.377331
0.208967,0.480654,0.647256,0.519138,0.370215
0.209712,0.483031,0.648334,0.518648,0.363098
0.210457,0.485408,0.649413,0.518159,0.355981
0.211202,0.487785,0.650492,0.517669,0.348865
0.211947,0.490162,0.651571,0.517180,0.341748
0.212693,0.492539,0.652649,0.516690,0.334631
0.213651,0.494863,0.653525,0.516226,0.328130
0.214943,0.497106,0.654081,0.515803,0.322595
0.216571,0.499266,0.654318,0.515419,0.318028
0.218533,0.501344,0.654236,0.515077,0.314427
0.220829,0.503339,0.653835,0.514775,0.311793
0.223460,0.505253,0.653115,0.514513,0.310125
0.226426,0.507084,0.652075,0.514291,0.309425
0.229726,0.508832,0.650717,0.514110,0.309691
0.233360,0.510499,0.649039,0.513969,0.310924
0.237330,0.512083,0.647042,0.513869,0.313125
0.241634,0.513585,0.644725,0.513809,0.316291
0.246272,0.515005,0.642090,0.513790,0.320425
0.251245,0.516342,0.639135,0.513810,0.325526
0.256553,0.517597,0.635862,0.513872,0.331593
0.262195,0.518770,0.632269,0.513973,0.338627
0.268172,0.519861,0.628357,0.514115,0.346628
0.274483,0.520869,0.624125,0.514298,0.355596
0.280916,0.521848,0.619778,0.514495,0.364916
0.287349,0.522826,0.615430,0.514692,0.374235
0.293782,0.523804,0.611083,0.514889,0.383554
0.300215,0.524783,0.606736,0.515087,0.392874
0.306648,0.525761,0.602388,0.515284,0.402193
0.313081,0.526740,0.598041,0.515481,0.411513
0.319514,0.527718,0.593693,0.515678,0.420832
0.325948,0.528696,0.589346,0.515875,0.430152
0.332381,0.529675,0.584998,0.516072,0.439471
0.338814,0.530653,0.580651,0.516270,0.448790
0.345247,0.531632,0.576304,0.516467,0.458110
0.351680,0.532610,0.571956,0.516664,0.467429
0.358113,0.533589,0.567609,0.516861,0.476749
0.364546,0.534567,0.563261,0.517058,0.486068
0.370979,0.535545,0.558914,0.517255,0.495388
0.377412,0.536524,0.554567,0.517453,0.504707
0.383845,0.537502,0.550219,0.517650,0.514026
0.390278,0.538481,0.545872,0.517847,0.523346
0.396711,0.539459,0.541524,0.518044,0.532665
0.403144,0.540437,0.537177,0.518241,0.541985
0.409577,0.541416,0.532830,0.518438,0.551304
0.416010,0.542394,0.528482,0.518636,0.560624
0.422443,0.543373,0.524135,0.518833,0.569943
0.428876,0.544351,0.519787,0.519030,0.579262
0.435309,0.545330,0.515440,0.519227,0.588582
0.441742,0.546308,0.511093,0.519424,0.597901
0.448175,0.547286,0.506745,0.519621,0.607221
0.454608,0.548265,0.502398,0.519818,0.616540
0.461041,0.549243,0.498050,0.520016,0.625860
0.467474,0.550222,0.493703,0.520213,0.635179
0.473907,0.551200,0.489356,0.520410,0.644498
0.480340,0.552179,0.485008,0.520607,0.653818
0.486773,0.553157,0.480661,0.520804,0.663137
0.493207,0.554135,0.476313,0.521001,0.672457
0.499640,0.555114,0.471966,0.521199,0.681776
0.506073,0.556092,0.467618,0.521396,0.691096
0.512506,0.557071,0.463271,0.521593,0.700415
0.518939,0.558049,0.458924,0.521790,0.709734
0.525372,0.559027,0.454576,0.521987,0.719054
0.531805,0.560006,0.450229,0.522184,0.728373
0.538238,0.560984,0.445881,0.522382,0.737693
0.544671,0.561963,0.441534,0.522579,0.747012
0.551104,0.562941,0.437187,0.522776,0.756332
0.557537,0.563920,0.432839,0.522973,0.765651
0.563970,0.564898,0.428492,0.523170,0.774971
0.570403,0.565876,0.424144,0.523367,0.784290
0.576836,0.566855,0.419797,0.523565,0.793609
0.583269,0.567833,0.415450,0.523762,0.802929
0.589702,0.568812,0.411102,0.523959,0.812248
0.596135,0.569790,0.406755,0.524156,0.821568
0.602568,0.570769,0.402407,0.524353,0.830887
0.609001,0.571747,0.398060,0.524550,0.840207
0.615434,0.572725,0.393713,0.524748,0.849526
0.621867,0.573704,0.389365,0.524945,0.858845
0.628300,0.574682,0.385018,0.525142,0.868165
0.634733,0.575661,0.380670,0.525339,0.877484
0.641166,0.576639,0.376323,0.525536,0.886804
0.647599,0.577617,0.371976,0.525733,0.896123
0.654032,0.578596,0.367628,0.525930,0.905443
0.660307,0.579511,0.363426,0.526108,0.914567
0.665999,0.580194,0.359758,0.526213,0.922976
0.671110,0.580644,0.356624,0.526247,0.930669
0.675638,0.580862,0.354024,0.526208,0.937647
0.679585,0.580847,0.351958,0.526098,0.943910
0.682950,0.580600,0.350425,0.525915,0.949457
0.685733,0.580120,0.349427,0.525661,0.954288
0.687934,0.579408,0.348962,0.525334,0.958404
0.689554,0.578464,0.349031,0.524936,0.961805
0.690591,0.577287,0.349634,0.524465,0.964490
0.691046,0.575878,0.350771,0.523922,0.966460
0.690920,0.574237,0.352442,0.523308,0.967714
0.690212,0.572363,0.354646,0.522621,0.968253
0.688921,0.570256,0.357385,0.521862,0.968077
0.687049,0.567917,0.360657,0.521032,0.967185
0.684595,0.565346,0.364464,0.520129,0.965577
0.681559,0.562543,0.368804,0.519154,0.963254
0.678100,0.559570,0.373532,0.518127,0.960411
0.674641,0.556597,0.378260,0.517100,0.957568
0.671182,0.553625,0.382989,0.516073,0.954725
0.667723,0.550652,0.387717,0.515046,0.951881
0.664264,0.547679,0.392446,0.514019,0.949038
0.660805,0.544706,0.397174,0.512992,0.946195
0.657346,0.541734,0.401902,0.511965,0.943352
0.653887,0.538761,0.406631,0.510937,0.940508
0.650428,0.535788,0.411359,0.509910,0.937665
0.646969,0.532816,0.416087,0.508883,0.934822
0.643509,0.529843,0.420816,0.507856,0.931979
0.640050,0.526870,0.425544,0.506829,0.929135
0.636591,0.523898,0.430272,0.505802,0.926292
0.633132,0.520925,0.435001,0.504775,0.923449
0.629673,0.517952,0.439729,0.503748,0.920606
0.626214,0.514980,0.444458,0.502721,0.917762
0.622755,0.512007,0.449186,0.501694,0.914919
0.619296,0.509034,0.453914,0.500666,0.912076
0.615837,0.506061,0.458643,0.499639,0.909233
0.612378,0.503089,0.463371,0.498612,0.906389
0.608919,0.500116,0.468099,0.497585,0.903546
0.605460,0.497143,0.472828,0.496558,0.900703
0.602001,0.494171,0.477556,0.495531,0.897860
0.598541,0.491198,0.482285,0.494504,0.895016
0.595082,0.488225,0.487013,0.493477,0.892173
0.591623,0.485253,0.491741,0.492450,0.889330
0.588164,0.482280,0.496470,0.491423,0.886487
0.584705,0.479307,0.501198,0.490395,0.883643
0.581246,0.476335,0.505926,0.489368,0.880800
0.577787,0.473362,0.510655,0.488341,0.877957
0.574328,0.470389,0.515383,0.487314,0.875114
0.570869,0.467416,0.520112,0.486287,0.872270
0.567410,0.464444,0.524840,0.485260,0.869427
0.563951,0.461471,0.529568,0.484233,0.866584
0.560492,0.458498,0.534297,0.483206,0.863741
0.557033,0.455526,0.539025,0.482179,0.860897
0.553573,0.452553,0.543753,0.481152,0.858054
0.550114,0.449580,0.548482,0.480124,0.855211
0.546655,0.446608,0.553210,0.479097,0.852368
0.543196,0.443635,0.557939,0.478070,0.849524
0.539737,0.440662,0.562667,0.477043,0.846681
0.536278,0.437690,0.567395,0.476016,0.843838
0.532819,0.434717,0.572124,0.474989,0.840995
0.529360,0.431744,0.576852,0.473962,0.838151
0.525901,0.428771,0.581580,0.472935,0.835308
0.522442,0.425799,0.586309,0.471908,0.832465
0.518983,0.422826,0.591037,0.470881,0.829622
0.515524,0.419853,0.595766,0.469853,0.826778
0.512065,0.416881,0.600494,0.468826,0.823935
0.508605,0.413908,0.605222,0.467799,0.821092
0.505146,0.410935,0.609951,0.466772,0.818249
0.501687,0.407963,0.614679,0.465745,0.815405
0.498228,0.404990,0.619407,0.464718,0.812562
0.494769,0.402017,0.624136,0.463691,0.809719
0.491310,0.399045,0.628864,0.462664,0.806876
0.487851,0.396072,0.633593,0.461637,0.804032
0.484392,0.393099,0.638321,0.460610,0.801189
0.480933,0.390126,0.643049,0.459582,0.798346
0.477474,0.387154,0.647778,0.458555,0.795503
0.474015,0.384181,0.652506,0.457528,0.792659
0.471064,0.381743,0.656686,0.456734,0.789660
0.468672,0.379892,0.660264,0.456196,0.786488
0.466840,0.378630,0.663239,0.455913,0.783144
0.465567,0.377955,0.665611,0.455887,0.779628
0.464853,0.377869,0.667380,0.456117,0.775940
0.464698,0.378370,0.668547,0.456603,0.772080
0.465103,0.379459,0.669110,0.457345,0.768048
0.466066,0.381135,0.669071,0.458343,0.763844
0.467589,0.383400,0.668429,0.459597,0.759467
0.469671,0.386253,0.667185,0.461107,0.754919
0.472312,0.389693,0.665337,0.462873,0.750198
0.475513,0.393722,0.662887,0.464895,0.745306
0.479272,0.398338,0.659834,0.467173,0.740241
0.483591,0.403542,0.656178,0.469707,0.735005
0.488469,0.409334,0.651919,0.472497,0.729596
0.493906,0.415714,0.647058,0.475543,0.724015
0.499902,0.422682,0.641594,0.478846,0.718262
0.505950,0.429703,0.636075,0.482171,0.712493
0.511997,0.436724,0.630556,0.485497,0.706725
0.518044,0.443745,0.625037,0.488822,0.700956
0.524091,0.450766,0.619518,0.492148,0.695187
0.530138,0.457788,0.613999,0.495473,0.689419
0.536185,0.464809,0.608480,0.498799,0.683650
0.542233,0.471830,0.602961,0.502125,0.677881
0.548280,0.478851,0.597442,0.505450,0.672113
0.554327,0.485872,0.591923,0.508776,0.666344
0.560374,0.492893,0.586404,0.512101,0.660576
0.566421,0.499915,0.580885,0.515427,0.654807
0.572468,0.506936,0.575366,0.518752,0.649038
0.578516,0.513957,0.569847,0.522078,0.643270
0.584563,0.520978,0.564328,0.525403,0.637501
0.590610,0.527999,0.558809,0.528729,0.631732
0.596657,0.535021,0.553290,0.532054,0.625964
0.602704,0.542042,0.547771,0.535380,0.620195
0.608751,0.549063,0.542252,0.538706,0.614427
0.614799,0.556084,0.536733,0.542031,0.608658
0.620846,0.563105,0.531214,0.545357,0.602889
0.626893,0.570126,0.525696,0.548682,0.597121
0.632940,0.577148,0.520177,0.552008,0.591352
0.638987,0.584169,0.514658,0.555333,0.585583
0.645035,0.591190,0.509139,0.558659,0.579815
0.651082,0.598211,0.503620,0.561984,0.574046
0.657129,0.605232,0.498101,0.565310,0.568278
0.663176,0.612254,0.492582,0.568635,0.562509
0.669223,0.619275,0.487063,0.571961,0.556740
0.675270,0.626296,0.481544,0.575287,0.550972
0.681318,0.633317,0.476025,0.578612,0.545203
0.687365,0.640338,0.470506,0.581938,0.539434
0.693412,0.647359,0.464987,0.585263,0.533666
0.699459,0.654381,0.459468,0.588589,0.527897
0.705506,0.661402,0.453949,0.591914,0.522129
0.711553,0.668423,0.448430,0.595240,0.516360
0.717601,0.675444,0.442911,0.598565,0.510591
0.723648,0.682465,0.437392,0.601891,0.504823
0.729695,0.689487,0.431873,0.605217,0.499054
0.735742,0.696508,0.426354,0.608542,0.493285
0.741789,0.703529,0.420835,0.611868,0.487517
0.747836,0.710550,0.415316,0.615193,0.481748
0.753884,0.717571,0.409797,0.618519,0.475980
0.759931,0.724592,0.404278,0.621844,0.470211
0.765978,0.731614,0.398759,0.625170,0.464442
0.772025,0.738635,0.393240,0.628495,0.458674
0.778072,0.745656,0.387721,0.631821,0.452905
0.784119,0.752677,0.382202,0.635146,0.447136
0.790167,0.759698,0.376683,0.638472,0.441368
0.796214,0.766720,0.371164,0.641798,0.435599
0.802261,0.773741,0.365645,0.645123,0.429831
0.808308,0.780762,0.360126,0.648449,0.424062
0.814355,0.787783,0.354607,0.651774,0.418293
0.820403,0.794804,0.349089,0.655100,0.412525
0.826450,0.801825,0.343570,0.658425,0.406756
0.832497,0.808847,0.338051,0.661751,0.400987
0.838544,0.815868,0.332532,0.665076,0.395219
0.844591,0.822889,0.327013,0.668402,0.389450
0.850638,0.829910,0.321494,0.671727,0.383682
0.856686,0.836931,0.315975,0.675053,0.377913
0.862446,0.843572,0.310865,0.678029,0.372475
0.867680,0.849516,0.306506,0.680364,0.367643
0.872387,0.854762,0.302897,0.682057,0.363417
0.876569,0.859311,0.300039,0.683110,0.359797
0.880224,0.863163,0.297931,0.683521,0.356783
0.883353,0.866317,0.296574,0.683291,0.354376
0.885956,0.868775,0.295967,0.682420,0.352574
0.888033,0.870535,0.296110,0.680908,0.351378
0.889584,0.871597,0.297004,0.678754,0.350789
0.890608,0.871963,0.298649,0.675960,0.350805
0.891106,0.871631,0.301044,0.672524,0.351428
0.891078,0.870602,0.304189,0.668448,0.352657
0.890524,0.868876,0.308085,0.663730,0.354491
0.889443,0.866452,0.312731,0.658371,0.356932
0.887836,0.863331,0.318128,0.652371,0.359979
0.885703,0.859513,0.324275,0.645729,0.363632
0.883044,0.854998,0.331173,0.638447,0.367891
0.880146,0.850165,0.338412,0.630873,0.372426
0.877248,0.845333,0.345650,0.623299,0.376960
0.874349,0.840500,0.352889,0.615725,0.381495
0.871451,0.835668,0.360128,0.608151,0.386029
0.868553,0.830836,0.367367,0.600578,0.390563
0.865654,0.826003,0.374605,0.593004,0.395098
0.862756,0.821171,0.381844,0.585430,0.399632
0.859858,0.816339,0.389083,0.577856,0.404167
0.856960,0.811506,0.396322,0.570282,0.408701
0.854061,0.806674,0.403560,0.562708,0.413236
0.851163,0.801842,0.410799,0.555134,0.417770
0.848265,0.797009,0.418038,0.547560,0.422305
0.845366,0.792177,0.425277,0.539987,0.426839
0.842468,0.787344,0.432515,0.532413,0.431374
0.839570,0.782512,0.439754,0.524839,0.435908
0.836671,0.777680,0.446993,0.517265,0.440443
0.833773,0.772847,0.454232,0.509691,0.444977
0.830875,0.768015,0.461470,0.502117,0.449512
0.827977,0.763183,0.468709,0.494543,0.454046
0.825078,0.758350,0.475948,0.486969,0.458581
0.822180,0.753518,0.483187,0.479396,0.463115
0.819282,0.748686,0.490425,0.471822,0.467650
0.816383,0.743853,0.497664,0.464248,0.472184
0.813485,0.739021,0.504903,0.456674,0.476719
0.810587,0.734188,0.512142,0.449100,0.481253
0.807688,0.729356,0.519381,0.441526,0.485788
0.804790,0.724524,0.526619,0.433952,0.490322
0.801892,0.719691,0.533858,0.426379,0.494857
0.798993,0.714859,0.541097,0.418805,0.499391
0.796095,0.710027,0.548336,0.411231,0.503926
0.793197,0.705194,0.555574,0.403657,0.508460
0.790299,0.700362,0.562813,0.396083,0.512995
0.787400,0.695529,0.570052,0.388509,0.517529
0.784502,0.690697,0.577291,0.380935,0.522064
0.781604,0.685865,0.584529,0.373361,0.526598
0.778705,0.681032,0.591768,0.365788,0.531133
0.775807,0.676200,0.599007,0.358214,0.535667
0.772909,0.671368,0.606246,0.350640,0.540202
0.770010,0.666535,0.613484,0.343066,0.544736
0.767112,0.661703,0.620723,0.335492,0.549270
0.764214,0.656871,0.627962,0.327918,0.553805
0.761316,0.652038,0.635201,0.320344,0.558339
0.758417,0.647206,0.642439,0.312770,0.562874
0.755519,0.642373,0.649678,0.305197,0.567408
0.752621,0.637541,0.656917,0.297623,0.571943
0.749722,0.632709,0.664156,0.290049,0.576477
0.746824,0.627876,0.671394,0.282475,0.581012
0.743926,0.623044,0.678633,0.274901,0.585546
0.741027,0.618212,0.685872,0.267327,0.590081
0.738129,0.613379,0.693111,0.259753,0.594615
0.735231,0.608547,0.700349,0.252180,0.599150
0.732332,0.603715,0.707588,0.244606,0.603684
0.729434,0.598882,0.714827,0.237032,0.608219
0.726536,0.594050,0.722066,0.229458,0.612753
0.723638,0.589217,0.729304,0.221884,0.617288
0.720739,0.584385,0.736543,0.214310,0.621822
0.717841,0.579553,0.743782,0.206736,0.626357
0.714943,0.574720,0.751021,0.199162,0.630891
0.712044,0.569888,0.758260,0.191589,0.635426
0.709165,0.565095,0.765361,0.184143,0.639856
0.706387,0.560518,0.771705,0.177406,0.643712
0.703713,0.556156,0.777294,0.171376,0.646994
0.701140,0.552010,0.782125,0.166054,0.649701
0.698670,0.548081,0.786201,0.161440,0.651835
0.696303,0.544367,0.789519,0.157534,0.653394
0.694038,0.540868,0.792082,0.154336,0.654379
0.691875,0.537586,0.793887,0.151845,0.654791
0.689815,0.534520,0.794937,0.150062,0.654627
0.687858,0.531669,0.795229,0.148987,0.653890
0.686003,0.529034,0.794766,0.148619,0.652579
0.684250,0.526615,0.793545,0.148960,0.650694
0.682599,0.524412,0.791569,0.150008,0.648234
0.681052,0.522424,0.788835,0.151764,0.645200
0.679606,0.520653,0.785346,0.154227,0.641592
0.678263,0.519097,0.781099,0.157399,0.637410
0.677023,0.517757,0.776097,0.161278,0.632654
0.675866,0.516594,0.770475,0.165736,0.627428
0.674709,0.515430,0.764853,0.170195,0.622202
0.673553,0.514267,0.759231,0.174653,0.616976
0.672396,0.513104,0.753610,0.179111,0.611750
0.671239,0.511940,0.747988,0.183569,0.606524
0.670083,0.510777,0.742366,0.188028,0.601298
0.668926,0.509614,0.736745,0.192486,0.596073
0.667769,0.508450,0.731123,0.196944,0.590847
0.666612,0.507287,0.725501,0.201403,0.585621
0.665456,0.506124,0.719880,0.205861,0.580395
0.664299,0.504960,0.714258,0.210319,0.575169
0.663142,0.503797,0.708636,0.214778,0.569943
0.661986,0.502634,0.703015,0.219236,0.564717
0.660829,0.501470,0.697393,0.223694,0.559491
0.659672,0.500307,0.691771,0.228153,0.554265
0.658516,0.499144,0.686149,0.232611,0.549039
0.657359,0.497980,0.680528,0.237069,0.543813
0.656202,0.496817,0.674906,0.241528,0.538587
0.655046,0.495653,0.669284,0.245986,0.533361
0.653889,0.494490,0.663663,0.250444,0.528135
0.652732,0.493327,0.658041,0.254903,0.522909
0.651575,0.492163,0.652419,0.259361,0.517684
0.650419,0.491000,0.646798,0.263819,0.512458
0.649262,0.489837,0.641176,0.268277,0.507232
0.648105,0.488673,0.635554,0.272736,0.502006
0.646949,0.487510,0.629933,0.277194,0.496780
0.645792,0.486347,0.624311,0.281652,0.491554
0.644635,0.485183,0.618689,0.286111,0.486328
0.643479,0.484020,0.613068,0.290569,0.481102
0.642322,0.482857,0.607446,0.295027,0.475876
0.641165,0.481693,0.601824,0.299486,0.470650
0.640009,0.480530,0.596202,0.303944,0.465424
0.638852,0.479367,0.590581,0.308402,0.460198
0.637695,0.478203,0.584959,0.312861,0.454972
0.636538,0.477040,0.579337,0.317319,0.449746
0.635382,0.475877,0.573716,0.321777,0.444521
0.634225,0.474713,0.568094,0.326236,0.439295
0.633068,0.473550,0.562472,0.330694,0.434069
0.631912,0.472387,0.556851,0.335152,0.428843
0.630755,0.471223,0.551229,0.339610,0.423617
0.629598,0.470060,0.545607,0.344069,0.418391
0.628442,0.468897,0.539986,0.348527,0.413165
