density,loudness,brightness,roughness,speed
0.322895,0.455149,0.665411,0.355670,0.227792
0.325844,0.457423,0.665821,0.358888,0.229535
0.329119,0.459950,0.666275,0.362462,0.231471
0.332722,0.462729,0.666775,0.366393,0.233601
0.336652,0.465760,0.667320,0.370681,0.235924
0.340909,0.469044,0.667911,0.375327,0.238441
0.345493,0.472580,0.668547,0.380329,0.241151
0.350404,0.476369,0.669229,0.385689,0.244055
0.355643,0.480410,0.669956,0.391405,0.247152
0.361209,0.484704,0.670728,0.397479,0.250442
0.366778,0.489000,0.671501,0.403555,0.253735
0.372347,0.493296,0.672273,0.409632,0.257027
0.377916,0.497591,0.673046,0.415709,0.260319
0.383485,0.501887,0.673819,0.421786,0.263612
0.389054,0.506183,0.674592,0.427863,0.266904
0.394622,0.510479,0.675364,0.433940,0.270196
0.400191,0.514775,0.676137,0.440017,0.273489
0.405760,0.519071,0.676910,0.446093,0.276781
0.411329,0.523367,0.677683,0.452170,0.280073
0.416898,0.527663,0.678455,0.458247,0.283366
0.422467,0.531958,0.679228,0.464324,0.286658
0.428036,0.536254,0.680001,0.470401,0.289950
0.433605,0.540550,0.680774,0.476478,0.293243
0.439174,0.544846,0.681546,0.482554,0.296535
0.444743,0.549142,0.682319,0.488631,0.299827
0.450312,0.553438,0.683092,0.494708,0.303120
0.455880,0.557734,0.683865,0.500785,0.306412
0.461449,0.562030,0.684637,0.506862,0.309704
0.467018,0.566325,0.685410,0.512939,0.312996
0.472587,0.570621,0.686183,0.519016,0.316289
0.478156,0.574917,0.686956,0.525092,0.319581
0.483725,0.579213,0.687728,0.531169,0.322873
0.489294,0.583509,0.688501,0.537246,0.326166
0.494863,0.587805,0.689274,0.543323,0.329458
0.500432,0.592101,0.690047,0.549400,0.332750
0.506001,0.596397,0.690819,0.555477,0.336043
0.511570,0.600692,0.691592,0.561553,0.339335
0.517139,0.604988,0.692365,0.567630,0.342627
0.522707,0.609284,0.693138,0.573707,0.345920
0.528276,0.613580,0.693910,0.579784,0.349212
0.533845,0.617876,0.694683,0.585861,0.352504
0.539414,0.622172,0.695456,0.591938,0.355797
0.544983,0.626468,0.696229,0.598014,0.359089
0.550552,0.630763,0.697002,0.604091,0.362381
0.556121,0.635059,0.697774,0.610168,0.365674
0.561690,0.639355,0.698547,0.616245,0.368966
0.567259,0.643651,0.699320,0.622322,0.372258
0.572828,0.647947,0.700093,0.628399,0.375550
0.578397,0.652243,0.700865,0.634476,0.378843
0.583966,0.656539,0.701638,0.640552,0.382135
0.589534,0.660835,0.702411,0.646629,0.385427
0.595103,0.665130,0.703184,0.652706,0.388720
0.600672,0.669426,0.703956,0.658783,0.392012
0.606241,0.673722,0.704729,0.664860,0.395304
0.611810,0.678018,0.705502,0.670937,0.398597
0.617379,0.682314,0.706275,0.677013,0.401889
0.622948,0.686610,0.707047,0.683090,0.405181
0.628517,0.690906,0.707820,0.689167,0.408474
0.634086,0.695202,0.708593,0.695244,0.411766
0.639655,0.699497,0.709366,0.701321,0.415058
0.645224,0.703793,0.710138,0.707398,0.418351
0.650793,0.708089,0.710911,0.713475,0.421643
0.656361,0.712385,0.711684,0.719551,0.424935
0.661930,0.716681,0.712457,0.725628,0.428228
0.667499,0.720977,0.713229,0.731705,0.431520
0.673068,0.725273,0.714002,0.737782,0.434812
0.678637,0.729569,0.714775,0.743859,0.438104
0.684206,0.733864,0.715548,0.749936,0.441397
0.689775,0.738160,0.716320,0.756012,0.444689
0.695344,0.742456,0.717093,0.762089,0.447981
0.700913,0.746752,0.717866,0.768166,0.451274
0.706482,0.751048,0.718639,0.774243,0.454566
0.711576,0.754917,0.719122,0.779851,0.457740
0.716155,0.758321,0.719290,0.784950,0.460784
0.720218,0.761261,0.719144,0.789539,0.463698
0.723765,0.763737,0.718682,0.793619,0.466484
0.726796,0.765749,0.717906,0.797189,0.469140
0.729311,0.767295,0.716814,0.800250,0.471667
0.731311,0.768378,0.715408,0.802801,0.474065
0.732794,0.768996,0.713687,0.804843,0.476333
0.733762,0.769150,0.711651,0.806375,0.478472
0.734213,0.768839,0.709300,0.807397,0.480482
0.734149,0.768064,0.706634,0.807910,0.482362
0.733569,0.766825,0.703653,0.807913,0.484113
0.732473,0.765121,0.700357,0.807407,0.485735
0.730861,0.762953,0.696746,0.806391,0.487228
0.728734,0.760320,0.692821,0.804866,0.488591
0.726090,0.757223,0.688580,0.802831,0.489825
0.722931,0.753661,0.684025,0.800287,0.490929
0.719719,0.750053,0.679437,0.797691,0.492021
0.716508,0.746445,0.674850,0.795096,0.493113
0.713297,0.742837,0.670263,0.792500,0.494204
0.710086,0.739229,0.665676,0.789905,0.495296
0.706875,0.735621,0.661089,0.787309,0.496388
0.703664,0.732013,0.656502,0.784714,0.497479
0.700452,0.728405,0.651915,0.782118,0.498571
0.697241,0.724797,0.647328,0.779523,0.499662
0.694030,0.721190,0.642741,0.776927,0.500754
0.690819,0.717582,0.638154,0.774332,0.501846
0.687608,0.713974,0.633567,0.771736,0.502937
0.684397,0.710366,0.628980,0.769141,0.504029
0.681185,0.706758,0.624393,0.766545,0.505121
0.677974,0.703150,0.619806,0.763950,0.506212
0.674763,0.699542,0.615219,0.761354,0.507304
0.671552,0.695934,0.610632,0.758759,0.508396
0.668341,0.692326,0.606045,0.756163,0.509487
0.665129,0.688718,0.601458,0.753568,0.510579
0.661918,0.685110,0.596871,0.750972,0.511670
0.658707,0.681502,0.592284,0.748377,0.512762
0.655496,0.677894,0.587697,0.745781,0.513854
0.652285,0.674286,0.583110,0.743186,0.514945
0.649074,0.670678,0.578523,0.740590,0.516037
0.645862,0.667070,0.573936,0.737995,0.517129
0.642651,0.663462,0.569348,0.735399,0.518220
0.639440,0.659854,0.564761,0.732804,0.519312
0.636229,0.656246,0.560174,0.730208,0.520403
0.633018,0.652638,0.555587,0.727613,0.521495
0.629807,0.649030,0.551000,0.725017,0.522587
0.626595,0.645422,0.546413,0.722422,0.523678
0.623384,0.641814,0.541826,0.719826,0.524770
0.620173,0.638206,0.537239,0.717231,0.525862
0.616962,0.634598,0.532652,0.714635,0.526953
0.613751,0.630990,0.528065,0.712040,0.528045
0.610539,0.627382,0.523478,0.709444,0.529137
0.607328,0.623774,0.518891,0.706849,0.530228
0.604117,0.620166,0.514304,0.704253,0.531320
0.600906,0.616558,0.509717,0.701658,0.532411
0.597695,0.612950,0.505130,0.699062,0.533503
0.594484,0.609342,0.500543,0.696467,0.534595
0.591272,0.605734,0.495956,0.693871,0.535686
0.588061,0.602126,0.491369,0.691276,0.536778
0.584850,0.598518,0.486782,0.688680,0.537870
0.581639,0.594910,0.482195,0.686085,0.538961
0.578428,0.591302,0.477608,0.683489,0.540053
0.575217,0.587694,0.473021,0.680894,0.541145
0.572005,0.584086,0.468434,0.678298,0.542236
0.568794,0.580478,0.463847,0.675703,0.543328
0.565583,0.576870,0.459260,0.673107,0.544419
0.562372,0.573262,0.454672,0.670512,0.545511
0.559161,0.569654,0.450085,0.667916,0.546603
0.555949,0.566046,0.445498,0.665321,0.547694
0.552738,0.562438,0.440911,0.662725,0.548786
0.549527,0.558830,0.436324,0.660130,0.549878
0.546316,0.555222,0.431737,0.657534,0.550969
0.543105,0.551614,0.427150,0.654939,0.552061
0.539894,0.548006,0.422563,0.652343,0.553153
0.536682,0.544398,0.417976,0.649748,0.554244
0.533471,0.540790,0.413389,0.647152,0.555336
0.530260,0.537182,0.408802,0.644557,0.556427
0.527049,0.533574,0.404215,0.641961,0.557519
0.523838,0.529966,0.399628,0.639366,0.558611
0.520718,0.526515,0.395314,0.636712,0.559689
0.517708,0.523255,0.391331,0.633987,0.560751
0.514809,0.520185,0.387678,0.631193,0.561796
0.512020,0.517305,0.384355,0.628328,0.562825
0.509341,0.514615,0.381363,0.625392,0.563838
0.506773,0.512115,0.378701,0.622386,0.564834
0.504315,0.509806,0.376369,0.619309,0.565814
0.501967,0.507686,0.374367,0.616162,0.566778
0.499729,0.505757,0.372695,0.612945,0.567725
0.497602,0.504018,0.371354,0.609657,0.568656
0.495585,0.502469,0.370343,0.606299,0.569571
0.493678,0.501110,0.369662,0.602870,0.570469
0.491882,0.499941,0.369311,0.599371,0.571351
0.490195,0.498963,0.369291,0.595802,0.572217
0.488619,0.498174,0.369601,0.592162,0.573066
0.487154,0.497576,0.370241,0.588451,0.573899
0.485798,0.497168,0.371211,0.584670,0.574716
0.484464,0.496796,0.372245,0.580876,0.575529
0.483130,0.496425,0.373278,0.577082,0.576343
0.481796,0.496053,0.374312,0.573287,0.577156
0.480461,0.495681,0.375345,0.569493,0.577969
0.479127,0.495310,0.376379,0.565698,0.578783
0.477793,0.494938,0.377412,0.561904,0.579596
0.476458,0.494566,0.378446,0.558110,0.580410
0.475124,0.494194,0.379479,0.554315,0.581223
0.473790,0.493823,0.380512,0.550521,0.582037
0.472456,0.493451,0.381546,0.546727,0.582850
0.471121,0.493079,0.382579,0.542932,0.583664
0.469787,0.492708,0.383613,0.539138,0.584477
0.468453,0.492336,0.384646,0.535344,0.585291
0.467118,0.491964,0.385680,0.531549,0.586104
0.465784,0.491593,0.386713,0.527755,0.586918
0.464450,0.491221,0.387747,0.523960,0.587731
0.463115,0.490849,0.388780,0.520166,0.588545
0.461781,0.490477,0.389814,0.516372,0.589358
0.460447,0.490106,0.390847,0.512577,0.590171
0.459113,0.489734,0.391881,0.508783,0.590985
0.457778,0.489362,0.392914,0.504989,0.591798
0.456444,0.488991,0.393948,0.501194,0.592612
0.455110,0.488619,0.394981,0.497400,0.593425
0.453775,0.488247,0.396015,0.493606,0.594239
0.452441,0.487875,0.397048,0.489811,0.595052
0.451107,0.487504,0.398082,0.486017,0.595866
0.449773,0.487132,0.399115,0.482222,0.596679
0.448438,0.486760,0.400149,0.478428,0.597493
0.447104,0.486389,0.401182,0.474634,0.598306
0.445770,0.486017,0.402216,0.470839,0.599120
0.444435,0.485645,0.403249,0.467045,0.599933
0.443101,0.485273,0.404283,0.463251,0.600747
0.441767,0.484902,0.405316,0.459456,0.601560
0.440433,0.484530,0.406350,0.455662,0.602374
0.439098,0.484158,0.407383,0.451868,0.603187
0.437764,0.483787,0.408417,0.448073,0.604000
0.436430,0.483415,0.409450,0.444279,0.604814
0.435095,0.483043,0.410484,0.440484,0.605627
0.433761,0.482671,0.411517,0.436690,0.606441
0.432427,0.482300,0.412551,0.432896,0.607254
0.431092,0.481928,0.413584,0.429101,0.608068
0.429758,0.481556,0.414617,0.425307,0.608881
0.428424,0.481185,0.415651,0.421513,0.609695
0.427090,0.480813,0.416684,0.417718,0.610508
0.425755,0.480441,0.417718,0.413924,0.611322
0.424421,0.480070,0.418751,0.410130,0.612135
0.423087,0.479698,0.419785,0.406335,0.612949
0.421752,0.479326,0.420818,0.402541,0.613762
0.420418,0.478954,0.421852,0.398746,0.614576
0.419084,0.478583,0.422885,0.394952,0.615389
0.417750,0.478211,0.423919,0.391158,0.616203
0.416415,0.477839,0.424952,0.387363,0.617016
0.415081,0.477468,0.425986,0.383569,0.617829
0.413747,0.477096,0.427019,0.379775,0.618643
0.412412,0.476724,0.428053,0.375980,0.619456
0.411078,0.476352,0.429086,0.372186,0.620270
0.409744,0.475981,0.430120,0.368392,0.621083
0.408410,0.475609,0.431153,0.364597,0.621897
0.407075,0.475237,0.432187,0.360803,0.622710
0.405741,0.474866,0.433220,0.357008,0.623524
0.404407,0.474494,0.434254,0.353214,0.624337
0.403072,0.474122,0.435287,0.349420,0.625151
0.402085,0.473857,0.436177,0.345796,0.625662
0.401568,0.473736,0.436871,0.342404,0.625765
0.401521,0.473760,0.437371,0.339242,0.625458
0.401945,0.473928,0.437675,0.336313,0.624742
0.402839,0.474240,0.437785,0.333614,0.623616
0.404203,0.474697,0.437699,0.331147,0.622081
0.406038,0.475298,0.437418,0.328912,0.620137
0.408343,0.476043,0.436942,0.326908,0.617783
0.411118,0.476933,0.436271,0.325135,0.615021
0.414364,0.477968,0.435405,0.323593,0.611849
0.418080,0.479146,0.434344,0.322283,0.608267
0.422267,0.480469,0.433088,0.321204,0.604276
0.426924,0.481937,0.431636,0.320357,0.599876
0.432051,0.483549,0.429990,0.319740,0.595067
0.437649,0.485305,0.428149,0.319356,0.589848
0.443717,0.487206,0.426112,0.319202,0.584220
0.450255,0.489251,0.423880,0.319280,0.578183
0.456926,0.491337,0.421594,0.319423,0.572030
0.463598,0.493423,0.419307,0.319567,0.565878
0.470269,0.495509,0.417020,0.319710,0.559725
0.476940,0.497594,0.414734,0.319853,0.553572
0.483611,0.499680,0.412447,0.319996,0.547419
0.490282,0.501766,0.410160,0.320140,0.541266
0.496953,0.503852,0.407874,0.320283,0.535114
0.503625,0.505938,0.405587,0.320426,0.528961
0.510296,0.508024,0.403300,0.320569,0.522808
0.516967,0.510110,0.401014,0.320713,0.516655
0.523638,0.512196,0.398727,0.320856,0.510502
0.530309,0.514281,0.396440,0.320999,0.504350
0.536981,0.516367,0.394154,0.321142,0.498197
0.543652,0.518453,0.391867,0.321286,0.492044
0.550323,0.520539,0.389580,0.321429,0.485891
0.556994,0.522625,0.387294,0.321572,0.479738
0.563665,0.524711,0.385007,0.321715,0.473586
0.570336,0.526797,0.382720,0.321859,0.467433
0.577008,0.528882,0.380434,0.322002,0.461280
0.583679,0.530968,0.378147,0.322145,0.455127
0.590350,0.533054,0.375860,0.322288,0.448974
0.597021,0.535140,0.373574,0.322432,0.442822
0.603692,0.537226,0.371287,0.322575,0.436669
0.610363,0.539312,0.369000,0.322718,0.430516
0.617035,0.541398,0.366713,0.322861,0.424363
0.623706,0.543483,0.364427,0.323005,0.418210
0.630377,0.545569,0.362140,0.323148,0.412058
0.637048,0.547655,0.359853,0.323291,0.405905
0.643719,0.549741,0.357567,0.323434,0.399752
0.650390,0.551827,0.355280,0.323578,0.393599
0.657062,0.553913,0.352993,0.323721,0.387446
0.663733,0.555999,0.350707,0.323864,0.381293
0.670404,0.558085,0.348420,0.324007,0.375141
0.677075,0.560170,0.346133,0.324151,0.368988
0.683746,0.562256,0.343847,0.324294,0.362835
0.690417,0.564342,0.341560,0.324437,0.356682
0.697089,0.566428,0.339273,0.324580,0.350529
0.703760,0.568514,0.336987,0.324723,0.344377
0.710431,0.570600,0.334700,0.324867,0.338224
0.717102,0.572686,0.332413,0.325010,0.332071
0.723773,0.574771,0.330127,0.325153,0.325918
0.730444,0.576857,0.327840,0.325296,0.319765
0.737116,0.578943,0.325553,0.325440,0.313613
0.743787,0.581029,0.323267,0.325583,0.307460
0.750458,0.583115,0.320980,0.325726,0.301307
0.757129,0.585201,0.318693,0.325869,0.295154
0.763800,0.587287,0.316407,0.326013,0.289001
0.770472,0.589372,0.314120,0.326156,0.282849
0.777143,0.591458,0.311833,0.326299,0.276696
0.783814,0.593544,0.309546,0.326442,0.270543
0.790485,0.595630,0.307260,0.326586,0.264390
0.797156,0.597716,0.304973,0.326729,0.258237
0.803827,0.599802,0.302686,0.326872,0.252085
0.810499,0.601888,0.300400,0.327015,0.245932
0.817170,0.603974,0.298113,0.327159,0.239779
0.823841,0.606059,0.295826,0.327302,0.233626
0.830512,0.608145,0.293540,0.327445,0.227473
0.837183,0.610231,0.291253,0.327588,0.221321
0.843854,0.612317,0.288966,0.327732,0.215168
0.850526,0.614403,0.286680,0.327875,0.209015
0.857197,0.616489,0.284393,0.328018,0.202862
0.863868,0.618575,0.282106,0.328161,0.196709
0.870174,0.620509,0.279891,0.328204,0.190802
0.875917,0.622209,0.277784,0.328090,0.185274
0.881095,0.623674,0.275788,0.327821,0.180126
0.885710,0.624905,0.273901,0.327396,0.175358
0.889760,0.625901,0.272123,0.326814,0.170969
0.893246,0.626663,0.270456,0.326077,0.166960
0.896168,0.627190,0.268897,0.325184,0.163331
0.898526,0.627483,0.267449,0.324135,0.160081
0.900320,0.627541,0.266110,0.322930,0.157211
0.901550,0.627365,0.264881,0.321569,0.154721
0.902216,0.626954,0.263761,0.320052,0.152611
0.902317,0.626309,0.262751,0.318380,0.150880
0.901855,0.625430,0.261850,0.316551,0.149529
0.900829,0.624315,0.261059,0.314566,0.148557
0.899238,0.622967,0.260378,0.312426,0.147965
0.897083,0.621384,0.259806,0.310129,0.147753
0.894364,0.619566,0.259344,0.307677,0.147921
0.891435,0.617661,0.258923,0.305166,0.148230
0.888506,0.615755,0.258502,0.302656,0.148540
0.885576,0.613850,0.258081,0.300145,0.148849
0.882647,0.611945,0.257660,0.297635,0.149158
0.879718,0.610040,0.257239,0.295124,0.149467
0.876789,0.608135,0.256817,0.292614,0.149777
0.873859,0.606229,0.256396,0.290103,0.150086
0.870930,0.604324,0.255975,0.287592,0.150395
0.868001,0.602419,0.255554,0.285082,0.150705
0.865071,0.600514,0.255133,0.282571,0.151014
0.862142,0.598608,0.254712,0.280061,0.151323
0.859213,0.596703,0.254291,0.277550,0.151633
0.856283,0.594798,0.253870,0.275039,0.151942
0.853354,0.592893,0.253448,0.272529,0.152251
0.850425,0.590988,0.253027,0.270018,0.152560
0.847495,0.589082,0.252606,0.267508,0.152870
0.844566,0.587177,0.252185,0.264997,0.153179
0.841637,0.585272,0.251764,0.262486,0.153488
0.838707,0.583367,0.251343,0.259976,0.153798
0.835778,0.581462,0.250922,0.257465,0.154107
0.832849,0.579556,0.250500,0.254955,0.154416
0.829919,0.577651,0.250079,0.252444,0.154726
0.826990,0.575746,0.249658,0.249933,0.155035
0.824061,0.573841,0.249237,0.247423,0.155344
0.821131,0.571935,0.248816,0.244912,0.155654
0.818202,0.570030,0.248395,0.242402,0.155963
0.815273,0.568125,0.247974,0.239891,0.156272
0.812343,0.566220,0.247552,0.237381,0.156581
0.809414,0.564315,0.247131,0.234870,0.156891
0.806485,0.562409,0.246710,0.232359,0.157200
0.803556,0.560504,0.246289,0.229849,0.157509
0.800626,0.558599,0.245868,0.227338,0.157819
0.797697,0.556694,0.245447,0.224828,0.158128
0.794768,0.554788,0.245026,0.222317,0.158437
0.791838,0.552883,0.244605,0.219806,0.158747
0.788909,0.550978,0.244183,0.217296,0.159056
0.785980,0.549073,0.243762,0.214785,0.159365
0.783050,0.547168,0.243341,0.212275,0.159675
0.780121,0.545262,0.242920,0.209764,0.159984
0.777192,0.543357,0.242499,0.207253,0.160293
0.774262,0.541452,0.242078,0.204743,0.160602
0.771333,0.539547,0.241657,0.202232,0.160912
0.768404,0.537642,0.241235,0.199722,0.161221
0.765474,0.535736,0.240814,0.197211,0.161530
0.762545,0.533831,0.240393,0.194700,0.161840
0.759616,0.531926,0.239972,0.192190,0.162149
0.756686,0.530021,0.239551,0.189679,0.162458
0.753757,0.528115,0.239130,0.187169,0.162768
0.750828,0.526210,0.238709,0.184658,0.163077
0.747898,0.524305,0.238287,0.182148,0.163386
0.744969,0.522400,0.237866,0.179637,0.163696
0.742040,0.520495,0.237445,0.177126,0.164005
0.739110,0.518589,0.237024,0.174616,0.164314
0.736181,0.516684,0.236603,0.172105,0.164623
0.733252,0.514779,0.236182,0.169595,0.164933
0.730322,0.512874,0.235761,0.167084,0.165242
0.727393,0.510968,0.235340,0.164573,0.165551
0.724464,0.509063,0.234918,0.162063,0.165861
0.721535,0.507158,0.234497,0.159552,0.166170
0.718605,0.505253,0.234076,0.157042,0.166479
0.715676,0.503348,0.233655,0.154531,0.166789
0.712747,0.501442,0.233234,0.152020,0.167098
0.709749,0.499642,0.232897,0.149696,0.167527
0.706629,0.498029,0.232711,0.147709,0.168173
0.703385,0.496606,0.232676,0.146057,0.169034
0.700019,0.495370,0.232793,0.144742,0.170112
0.696530,0.494323,0.233061,0.143762,0.171406
0.692919,0.493464,0.233480,0.143119,0.172915
0.689184,0.492793,0.234051,0.142812,0.174641
0.685327,0.492311,0.234773,0.142841,0.176584
0.681346,0.492017,0.235646,0.143207,0.178742
0.677243,0.491912,0.236671,0.143908,0.181116
0.673017,0.491995,0.237846,0.144946,0.183706
0.668668,0.492266,0.239174,0.146320,0.186513
0.664197,0.492726,0.240652,0.148030,0.189536
0.659602,0.493374,0.242282,0.150076,0.192774
0.654885,0.494210,0.244063,0.152458,0.196229
0.650045,0.495234,0.245995,0.155176,0.199900
0.645081,0.496447,0.248078,0.158231,0.203787
0.640061,0.497748,0.250232,0.161442,0.207775
0.635041,0.499048,0.252386,0.164652,0.211762
0.630021,0.500349,0.254540,0.167863,0.215750
0.625001,0.501649,0.256693,0.171073,0.219737
0.619981,0.502950,0.258847,0.174284,0.223725
0.614961,0.504250,0.261001,0.177495,0.227712
0.609941,0.505550,0.263155,0.180705,0.231699
0.604921,0.506851,0.265308,0.183916,0.235687
0.599901,0.508151,0.267462,0.187127,0.239674
0.594881,0.509452,0.269616,0.190337,0.243662
0.589860,0.510752,0.271770,0.193548,0.247649
0.584840,0.512053,0.273924,0.196759,0.251637
0.579820,0.513353,0.276077,0.199969,0.255624
0.574800,0.514653,0.278231,0.203180,0.259611
0.569780,0.515954,0.280385,0.206390,0.263599
0.564760,0.517254,0.282539,0.209601,0.267586
0.559740,0.518555,0.284692,0.212812,0.271574
0.554720,0.519855,0.286846,0.216022,0.275561
0.549700,0.521156,0.289000,0.219233,0.279549
0.544680,0.522456,0.291154,0.222444,0.283536
0.539659,0.523756,0.293308,0.225654,0.287523
0.534639,0.525057,0.295461,0.228865,0.291511
0.529619,0.526357,0.297615,0.232076,0.295498
0.524599,0.527658,0.299769,0.235286,0.299486
0.519579,0.528958,0.301923,0.238497,0.303473
0.514559,0.530259,0.304076,0.241708,0.307461
0.509539,0.531559,0.306230,0.244918,0.311448
0.504519,0.532860,0.308384,0.248129,0.315436
