density,loudness,brightness,roughness,speed
0.841382,0.795302,0.498508,0.124930,0.364970
0.837540,0.791668,0.496516,0.124988,0.363702
0.833273,0.787630,0.494302,0.125053,0.362294
0.828579,0.783189,0.491867,0.125124,0.360744
0.823459,0.778345,0.489211,0.125202,0.359054
0.817912,0.773097,0.486334,0.125287,0.357224
0.811939,0.767446,0.483235,0.125377,0.355253
0.805540,0.761391,0.479916,0.125475,0.353141
0.798714,0.754934,0.476375,0.125579,0.350888
0.791463,0.748073,0.472613,0.125689,0.348495
0.784207,0.741208,0.468850,0.125799,0.346100
0.776951,0.734343,0.465086,0.125909,0.343705
0.769696,0.727478,0.461322,0.126020,0.341311
0.762440,0.720614,0.457558,0.126130,0.338916
0.755184,0.713749,0.453794,0.126240,0.336521
0.747929,0.706884,0.450031,0.126351,0.334127
0.740673,0.700019,0.446267,0.126461,0.331732
0.733417,0.693155,0.442503,0.126571,0.329337
0.726162,0.686290,0.438739,0.126682,0.326943
0.718906,0.679425,0.434975,0.126792,0.324548
0.711650,0.672561,0.431212,0.126902,0.322153
0.704395,0.665696,0.427448,0.127013,0.319759
0.697139,0.658831,0.423684,0.127123,0.317364
0.689883,0.651966,0.419920,0.127233,0.314969
0.682628,0.645102,0.416156,0.127344,0.312575
0.675372,0.638237,0.412392,0.127454,0.310180
0.668116,0.631372,0.408629,0.127564,0.307785
0.660861,0.624507,0.404865,0.127675,0.305391
0.653605,0.617643,0.401101,0.127785,0.302996
0.646349,0.610778,0.397337,0.127895,0.300601
0.639094,0.603913,0.393573,0.128006,0.298207
0.631838,0.597048,0.389810,0.128116,0.295812
0.624582,0.590184,0.386046,0.128226,0.293417
0.617327,0.583319,0.382282,0.128337,0.291023
0.610071,0.576454,0.378518,0.128447,0.288628
0.602815,0.569590,0.374754,0.128557,0.286233
0.595560,0.562725,0.370991,0.128668,0.283839
0.588304,0.555860,0.367227,0.128778,0.281444
0.581049,0.548995,0.363463,0.128888,0.279049
0.573793,0.542131,0.359699,0.128999,0.276655
0.566537,0.535266,0.355935,0.129109,0.274260
0.559282,0.528401,0.352172,0.129219,0.271865
0.552026,0.521536,0.348408,0.129330,0.269471
0.544770,0.514672,0.344644,0.129440,0.267076
0.537515,0.507807,0.340880,0.129550,0.264681
0.530259,0.500942,0.337116,0.129661,0.262287
0.523003,0.494077,0.333353,0.129771,0.259892
0.515748,0.487213,0.329589,0.129881,0.257497
0.508492,0.480348,0.325825,0.129992,0.255103
0.501236,0.473483,0.322061,0.130102,0.252708
0.493981,0.466619,0.318297,0.130212,0.250313
0.486725,0.459754,0.314534,0.130323,0.247919
0.479469,0.452889,0.310770,0.130433,0.245524
0.472214,0.446024,0.307006,0.130543,0.243129
0.464958,0.439160,0.303242,0.130654,0.240735
0.457702,0.432295,0.299478,0.130764,0.238340
0.450447,0.425430,0.295714,0.130874,0.235945
0.443191,0.418565,0.291951,0.130985,0.233551
0.435935,0.411701,0.288187,0.131095,0.231156
0.428680,0.404836,0.284423,0.131205,0.228761
0.421424,0.397971,0.280659,0.131316,0.226367
0.414168,0.391106,0.276895,0.131426,0.223972
0.406913,0.384242,0.273132,0.131536,0.221577
0.399657,0.377377,0.269368,0.131647,0.219183
0.392401,0.370512,0.265604,0.131757,0.216788
0.385146,0.363648,0.261840,0.131867,0.214393
0.377890,0.356783,0.258076,0.131978,0.211999
0.370634,0.349918,0.254313,0.132088,0.209604
0.363379,0.343053,0.250549,0.132198,0.207209
0.356123,0.336189,0.246785,0.132309,0.204815
0.348867,0.329324,0.243021,0.132419,0.202420
0.341612,0.322459,0.239257,0.132529,0.200025
0.334356,0.315594,0.235494,0.132640,0.197631
0.327100,0.308730,0.231730,0.132750,0.195236
0.320034,0.302124,0.228084,0.132975,0.192993
0.313399,0.296110,0.224709,0.133461,0.191097
0.307216,0.290716,0.221617,0.134220,0.189564
0.301485,0.285942,0.218808,0.135253,0.188394
0.296207,0.281787,0.216281,0.136559,0.187587
0.291380,0.278251,0.214038,0.138139,0.187143
0.287005,0.275335,0.212077,0.139992,0.187062
0.283082,0.273039,0.210400,0.142119,0.187344
0.279612,0.271362,0.209005,0.144519,0.187989
0.276593,0.270305,0.207893,0.147193,0.188997
0.274026,0.269867,0.207065,0.150140,0.190368
0.271912,0.270049,0.206519,0.153361,0.192102
0.270249,0.270851,0.206256,0.156855,0.194199
0.269038,0.272272,0.206276,0.160622,0.196659
0.268280,0.274313,0.206579,0.164663,0.199482
0.267973,0.276973,0.207165,0.168978,0.202668
0.268118,0.280253,0.208033,0.173566,0.206217
0.268531,0.283898,0.209069,0.178315,0.209980
0.268968,0.287578,0.210121,0.183080,0.213763
0.269405,0.291258,0.211172,0.187844,0.217547
0.269842,0.294937,0.212224,0.192608,0.221330
0.270279,0.298617,0.213275,0.197373,0.225113
0.270716,0.302297,0.214327,0.202137,0.228897
0.271153,0.305976,0.215378,0.206902,0.232680
0.271590,0.309656,0.216429,0.211666,0.236463
0.272027,0.313336,0.217481,0.216431,0.240246
0.272464,0.317015,0.218532,0.221195,0.244030
0.272901,0.320695,0.219584,0.225959,0.247813
0.273338,0.324375,0.220635,0.230724,0.251596
0.273775,0.328054,0.221687,0.235488,0.255380
0.274212,0.331734,0.222738,0.240253,0.259163
0.274650,0.335413,0.223789,0.245017,0.262946
0.275087,0.339093,0.224841,0.249782,0.266729
0.275524,0.342773,0.225892,0.254546,0.270513
0.275961,0.346452,0.226944,0.259310,0.274296
0.276398,0.350132,0.227995,0.264075,0.278079
0.276835,0.353812,0.229047,0.268839,0.281863
0.277272,0.357491,0.230098,0.273604,0.285646
0.277709,0.361171,0.231149,0.278368,0.289429
0.278146,0.364851,0.232201,0.283133,0.293212
0.278583,0.368530,0.233252,0.287897,0.296996
0.279020,0.372210,0.234304,0.292661,0.300779
0.279457,0.375890,0.235355,0.297426,0.304562
0.279894,0.379569,0.236407,0.302190,0.308346
0.280331,0.383249,0.237458,0.306955,0.312129
0.280769,0.386929,0.238509,0.311719,0.315912
0.281206,0.390608,0.239561,0.316484,0.319695
0.281643,0.394288,0.240612,0.321248,0.323479
0.282080,0.397968,0.241664,0.326012,0.327262
0.282517,0.401647,0.242715,0.330777,0.331045
0.282954,0.405327,0.243767,0.335541,0.334829
0.283391,0.409007,0.244818,0.340306,0.338612
0.283828,0.412686,0.245870,0.345070,0.342395
0.284265,0.416366,0.246921,0.349835,0.346178
0.284702,0.420046,0.247972,0.354599,0.349962
0.285139,0.423725,0.249024,0.359363,0.353745
0.285576,0.427405,0.250075,0.364128,0.357528
0.286013,0.431085,0.251127,0.368892,0.361312
0.286450,0.434764,0.252178,0.373657,0.365095
0.286887,0.438444,0.253230,0.378421,0.368878
0.287325,0.442123,0.254281,0.383185,0.372661
0.287762,0.445803,0.255332,0.387950,0.376445
0.288199,0.449483,0.256384,0.392714,0.380228
0.288636,0.453162,0.257435,0.397479,0.384011
0.289073,0.456842,0.258487,0.402243,0.387795
0.289510,0.460522,0.259538,0.407008,0.391578
0.289947,0.464201,0.260590,0.411772,0.395361
0.290384,0.467881,0.261641,0.416536,0.399144
0.290821,0.471561,0.262692,0.421301,0.402928
0.291258,0.475240,0.263744,0.426065,0.406711
0.291695,0.478920,0.264795,0.430830,0.410494
0.292132,0.482600,0.265847,0.435594,0.414278
0.292569,0.486279,0.266898,0.440359,0.418061
0.293006,0.489959,0.267950,0.445123,0.421844
0.293444,0.493639,0.269001,0.449887,0.425627
0.293881,0.497318,0.270052,0.454652,0.429411
0.294318,0.500998,0.271104,0.459416,0.433194
0.294755,0.504678,0.272155,0.464181,0.436977
0.295192,0.508357,0.273207,0.468945,0.440761
0.295629,0.512037,0.274258,0.473710,0.444544
0.296066,0.515717,0.275310,0.478474,0.448327
0.296503,0.519396,0.276361,0.483238,0.452110
0.296858,0.522960,0.277710,0.487730,0.455977
0.297105,0.526374,0.279449,0.491865,0.459951
0.297242,0.529634,0.281583,0.495637,0.464036
0.297270,0.532740,0.284112,0.499047,0.468231
0.297189,0.535694,0.287037,0.502094,0.472536
0.296998,0.538494,0.290358,0.504778,0.476951
0.296697,0.541140,0.294074,0.507101,0.481476
0.296287,0.543634,0.298186,0.509060,0.486112
0.295768,0.545974,0.302693,0.510658,0.490857
0.295139,0.548160,0.307596,0.511892,0.495713
0.294401,0.550194,0.312894,0.512765,0.500679
0.293553,0.552074,0.318587,0.513274,0.505755
0.292596,0.553800,0.324677,0.513421,0.510941
0.291529,0.555374,0.331161,0.513206,0.516237
0.290353,0.556793,0.338042,0.512628,0.521643
0.289067,0.558060,0.345318,0.511688,0.527160
0.287672,0.559173,0.352989,0.510385,0.532786
0.286248,0.560246,0.360765,0.508987,0.538442
0.284822,0.561316,0.368548,0.507582,0.544100
0.283396,0.562386,0.376330,0.506177,0.549757
0.281970,0.563457,0.384113,0.504772,0.555415
0.280544,0.564527,0.391896,0.503367,0.561073
0.279118,0.565597,0.399679,0.501962,0.566730
0.277692,0.566667,0.407462,0.500557,0.572388
0.276266,0.567737,0.415245,0.499152,0.578046
0.274840,0.568807,0.423027,0.497747,0.583703
0.273414,0.569877,0.430810,0.496342,0.589361
0.271988,0.570947,0.438593,0.494937,0.595019
0.270562,0.572017,0.446376,0.493532,0.600676
0.269136,0.573088,0.454159,0.492127,0.606334
0.267711,0.574158,0.461941,0.490722,0.611992
0.266285,0.575228,0.469724,0.489317,0.617649
0.264859,0.576298,0.477507,0.487912,0.623307
0.263433,0.577368,0.485290,0.486507,0.628965
0.262007,0.578438,0.493073,0.485102,0.634622
0.260581,0.579508,0.500855,0.483697,0.640280
0.259155,0.580578,0.508638,0.482292,0.645938
0.257729,0.581648,0.516421,0.480887,0.651595
0.256303,0.582718,0.524204,0.479482,0.657253
0.254877,0.583789,0.531987,0.478077,0.662911
0.253451,0.584859,0.539770,0.476672,0.668568
0.252025,0.585929,0.547552,0.475267,0.674226
0.250599,0.586999,0.555335,0.473862,0.679884
0.249173,0.588069,0.563118,0.472457,0.685541
0.247747,0.589139,0.570901,0.471052,0.691199
0.246321,0.590209,0.578684,0.469647,0.696857
0.244895,0.591279,0.586466,0.468242,0.702514
0.243469,0.592349,0.594249,0.466837,0.708172
0.242043,0.593420,0.602032,0.465432,0.713830
0.240617,0.594490,0.609815,0.464027,0.719487
0.239191,0.595560,0.617598,0.462622,0.725145
0.237765,0.596630,0.625381,0.461217,0.730803
0.236339,0.597700,0.633163,0.459812,0.736460
0.234913,0.598770,0.640946,0.458407,0.742118
0.233487,0.599840,0.648729,0.457002,0.747776
0.232061,0.600910,0.656512,0.455597,0.753433
0.230635,0.601980,0.664295,0.454192,0.759091
0.229209,0.603050,0.672077,0.452787,0.764749
0.227783,0.604121,0.679860,0.451382,0.770406
0.226358,0.605191,0.687643,0.449977,0.776064
0.224932,0.606261,0.695426,0.448572,0.781721
0.223506,0.607331,0.703209,0.447167,0.787379
0.222080,0.608401,0.710991,0.445762,0.793037
0.220654,0.609471,0.718774,0.444357,0.798694
0.219228,0.610541,0.726557,0.442952,0.804352
0.217802,0.611611,0.734340,0.441547,0.810010
0.216376,0.612681,0.742123,0.440142,0.815667
0.214950,0.613752,0.749906,0.438737,0.821325
0.213524,0.614822,0.757688,0.437332,0.826983
0.212098,0.615892,0.765471,0.435927,0.832640
0.210672,0.616962,0.773254,0.434522,0.838298
0.209246,0.618032,0.781037,0.433117,0.843956
0.207820,0.619102,0.788820,0.431712,0.849613
0.206394,0.620172,0.796602,0.430307,0.855271
0.204968,0.621242,0.804385,0.428902,0.860929
0.203542,0.622312,0.812168,0.427498,0.866586
0.202116,0.623382,0.819951,0.426093,0.872244
0.200690,0.624453,0.827734,0.424688,0.877902
0.199264,0.625523,0.835517,0.423283,0.883559
0.197838,0.626593,0.843299,0.421878,0.889217
0.196412,0.627663,0.851082,0.420473,0.894875
0.195115,0.628709,0.858728,0.419050,0.900380
0.194219,0.629683,0.865950,0.417574,0.905410
0.193803,0.630568,0.872661,0.416033,0.909872
0.193869,0.631366,0.878862,0.414426,0.913763
0.194415,0.632076,0.884554,0.412756,0.917085
0.195442,0.632698,0.889735,0.411020,0.919838
0.196951,0.633233,0.894406,0.409219,0.922021
0.198940,0.633679,0.898567,0.407353,0.923635
0.201411,0.634038,0.902218,0.405423,0.924679
0.204362,0.634308,0.905359,0.403428,0.925153
0.207794,0.634491,0.907990,0.401368,0.925058
0.211708,0.634586,0.910111,0.399243,0.924393
0.216102,0.634594,0.911722,0.397053,0.923159
0.220977,0.634513,0.912823,0.394798,0.921355
0.226334,0.634345,0.913414,0.392478,0.918982
0.232171,0.634088,0.913495,0.390094,0.916039
0.238489,0.633744,0.913065,0.387644,0.912527
0.245163,0.633335,0.912259,0.385147,0.908593
0.251923,0.632910,0.911362,0.382638,0.904558
0.258683,0.632486,0.910464,0.380129,0.900523
0.265443,0.632061,0.909566,0.377620,0.896487
0.272203,0.631636,0.908669,0.375112,0.892452
0.278963,0.631211,0.907771,0.372603,0.888416
0.285723,0.630787,0.906873,0.370094,0.884381
0.292483,0.630362,0.905975,0.367585,0.880345
0.299243,0.629937,0.905078,0.365076,0.876310
0.306003,0.629512,0.904180,0.362567,0.872274
0.312764,0.629088,0.903282,0.360058,0.868239
0.319524,0.628663,0.902385,0.357549,0.864203
0.326284,0.628238,0.901487,0.355040,0.860168
0.333044,0.627813,0.900589,0.352531,0.856133
0.339804,0.627389,0.899692,0.350022,0.852097
0.346564,0.626964,0.898794,0.347514,0.848062
0.353324,0.626539,0.897896,0.345005,0.844026
0.360084,0.626114,0.896999,0.342496,0.839991
0.366844,0.625690,0.896101,0.339987,0.835955
0.373604,0.625265,0.895203,0.337478,0.831920
0.380364,0.624840,0.894306,0.334969,0.827884
0.387124,0.624415,0.893408,0.332460,0.823849
0.393884,0.623991,0.892510,0.329951,0.819814
0.400644,0.623566,0.891613,0.327442,0.815778
0.407404,0.623141,0.890715,0.324933,0.811743
0.414164,0.622716,0.889817,0.322424,0.807707
0.420924,0.622292,0.888920,0.319916,0.803672
0.427684,0.621867,0.888022,0.317407,0.799636
0.434444,0.621442,0.887124,0.314898,0.795601
0.441204,0.621017,0.886226,0.312389,0.791565
0.447964,0.620593,0.885329,0.309880,0.787530
0.454724,0.620168,0.884431,0.307371,0.783495
0.461484,0.619743,0.883533,0.304862,0.779459
0.468244,0.619318,0.882636,0.302353,0.775424
0.475004,0.618893,0.881738,0.299844,0.771388
0.481764,0.618469,0.880840,0.297335,0.767353
0.488525,0.618044,0.879943,0.294826,0.763317
0.495285,0.617619,0.879045,0.292318,0.759282
0.502045,0.617194,0.878147,0.289809,0.755246
0.508805,0.616770,0.877250,0.287300,0.751211
0.515565,0.616345,0.876352,0.284791,0.747176
0.522325,0.615920,0.875454,0.282282,0.743140
0.529085,0.615495,0.874557,0.279773,0.739105
0.535845,0.615071,0.873659,0.277264,0.735069
0.542605,0.614646,0.872761,0.274755,0.731034
0.549365,0.614221,0.871864,0.272246,0.726998
0.556125,0.613796,0.870966,0.269737,0.722963
0.562885,0.613372,0.870068,0.267228,0.718927
0.569645,0.612947,0.869171,0.264720,0.714892
0.576405,0.612522,0.868273,0.262211,0.710856
0.583165,0.612097,0.867375,0.259702,0.706821
0.589925,0.611673,0.866477,0.257193,0.702786
0.596685,0.611248,0.865580,0.254684,0.698750
0.603445,0.610823,0.864682,0.252175,0.694715
0.610205,0.610398,0.863784,0.249666,0.690679
0.616965,0.609974,0.862887,0.247157,0.686644
0.623725,0.609549,0.861989,0.244648,0.682608
0.630485,0.609124,0.861091,0.242139,0.678573
0.637245,0.608699,0.860194,0.239630,0.674537
0.644005,0.608275,0.859296,0.237122,0.670502
0.650765,0.607850,0.858398,0.234613,0.666467
0.657526,0.607425,0.857501,0.232104,0.662431
0.664286,0.607000,0.856603,0.229595,0.658396
0.671046,0.606576,0.855705,0.227086,0.654360
0.677806,0.606151,0.854808,0.224577,0.650325
0.684254,0.605709,0.853829,0.222362,0.646463
0.690149,0.605237,0.852706,0.220668,0.642910
0.695454,0.604733,0.851429,0.219530,0.639685
0.700169,0.604196,0.849998,0.218948,0.636790
0.704293,0.603628,0.848414,0.218922,0.634223
0.707826,0.603027,0.846675,0.219453,0.631986
0.710769,0.602394,0.844783,0.220539,0.630077
0.713122,0.601728,0.842737,0.222183,0.628498
0.714884,0.601031,0.840537,0.224382,0.627248
0.716056,0.600301,0.838184,0.227138,0.626327
0.716637,0.599539,0.835676,0.230449,0.625735
0.716628,0.598745,0.833015,0.234318,0.625472
0.716029,0.597918,0.830199,0.238742,0.625538
0.714839,0.597059,0.827230,0.243723,0.625933
0.713058,0.596168,0.824107,0.249260,0.626657
0.710687,0.595245,0.820830,0.255353,0.627710
0.707725,0.594289,0.817400,0.262002,0.629093
0.704476,0.593318,0.813894,0.268922,0.630635
0.701187,0.592345,0.810378,0.275881,0.632200
0.697898,0.591372,0.806862,0.282839,0.633765
0.694609,0.590398,0.803346,0.289797,0.635330
0.691320,0.589425,0.799830,0.296755,0.636895
0.688031,0.588451,0.796314,0.303713,0.638460
0.684742,0.587478,0.792798,0.310671,0.640025
0.681453,0.586505,0.789282,0.317629,0.641589
0.678164,0.585531,0.785766,0.324587,0.643154
0.674875,0.584558,0.782250,0.331545,0.644719
0.671586,0.583584,0.778734,0.338503,0.646284
0.668297,0.582611,0.775218,0.345461,0.647849
0.665007,0.581638,0.771702,0.352419,0.649414
0.661718,0.580664,0.768186,0.359377,0.650979
0.658429,0.579691,0.764670,0.366335,0.652544
0.655140,0.578718,0.761154,0.373293,0.654108
0.651851,0.577744,0.757638,0.380251,0.655673
0.648562,0.576771,0.754122,0.387209,0.657238
0.645273,0.575797,0.750606,0.394167,0.658803
0.641984,0.574824,0.747090,0.401126,0.660368
0.638695,0.573851,0.743574,0.408084,0.661933
0.635406,0.572877,0.740058,0.415042,0.663498
0.632117,0.571904,0.736542,0.422000,0.665063
0.628828,0.570931,0.733026,0.428958,0.666627
0.625538,0.569957,0.729510,0.435916,0.668192
0.622249,0.568984,0.725994,0.442874,0.669757
0.618960,0.568010,0.722478,0.449832,0.671322
0.615671,0.567037,0.718962,0.456790,0.672887
0.612382,0.566064,0.715446,0.463748,0.674452
0.609093,0.565090,0.711930,0.470706,0.676017
0.605804,0.564117,0.708414,0.477664,0.677582
0.602515,0.563144,0.704898,0.484622,0.679147
0.599226,0.562170,0.701382,0.491580,0.680711
0.595937,0.561197,0.697866,0.498538,0.682276
0.592648,0.560223,0.694350,0.505496,0.683841
0.589359,0.559250,0.690834,0.512454,0.685406
0.586069,0.558277,0.687318,0.519412,0.686971
0.582780,0.557303,0.683802,0.526370,0.688536
0.579491,0.556330,0.680286,0.533329,0.690101
0.576202,0.555357,0.676770,0.540287,0.691666
0.572913,0.554383,0.673254,0.547245,0.693230
0.569624,0.553410,0.669738,0.554203,0.694795
0.566335,0.552436,0.666222,0.561161,0.696360
0.563046,0.551463,0.662705,0.568119,0.697925
0.559757,0.550490,0.659189,0.575077,0.699490
0.556468,0.549516,0.655673,0.582035,0.701055
0.553179,0.548543,0.652157,0.588993,0.702620
0.549890,0.547570,0.648641,0.595951,0.704185
0.546600,0.546596,0.645125,0.602909,0.705750
0.543311,0.545623,0.641609,0.609867,0.707314
0.540022,0.544649,0.638093,0.616825,0.708879
0.536733,0.543676,0.634577,0.623783,0.710444
0.533444,0.542703,0.631061,0.630741,0.712009
0.530155,0.541729,0.627545,0.637699,0.713574
0.526866,0.540756,0.624029,0.644657,0.715139
0.523577,0.539782,0.620513,0.651615,0.716704
0.520288,0.538809,0.616997,0.658573,0.718269
0.516999,0.537836,0.613481,0.665532,0.719833
0.513710,0.536862,0.609965,0.672490,0.721398
0.510421,0.535889,0.606449,0.679448,0.722963
0.507131,0.534916,0.602933,0.686406,0.724528
0.503842,0.533942,0.599417,0.693364,0.726093
0.500553,0.532969,0.595901,0.700322,0.727658
0.497264,0.531995,0.592385,0.707280,0.729223
0.493984,0.531017,0.588870,0.714147,0.730759
0.490746,0.530018,0.585360,0.720607,0.732170
0.487568,0.528988,0.581857,0.726465,0.733395
0.484451,0.527927,0.578361,0.731721,0.734433
0.481395,0.526835,0.574873,0.736376,0.735286
0.478400,0.525712,0.571391,0.740429,0.735952
0.475465,0.524557,0.567917,0.743880,0.736432
0.472592,0.523372,0.564449,0.746729,0.736726
0.469780,0.522156,0.560989,0.748976,0.736834
0.467028,0.520908,0.557536,0.750622,0.736756
0.464337,0.519630,0.554090,0.751666,0.736492
0.461707,0.518320,0.550651,0.752108,0.736041
0.459138,0.516980,0.547220,0.751948,0.735405
0.456630,0.515608,0.543795,0.751186,0.734582
0.454183,0.514206,0.540378,0.749823,0.733573
0.451796,0.512772,0.536967,0.747858,0.732378
0.449471,0.511307,0.533564,0.745291,0.730997
0.447197,0.509816,0.530167,0.742210,0.729457
0.444945,0.508315,0.526773,0.738927,0.727854
0.442692,0.506813,0.523378,0.735643,0.726252
0.440439,0.505311,0.519983,0.732359,0.724649
0.438186,0.503810,0.516589,0.729075,0.723046
0.435933,0.502308,0.513194,0.725792,0.721443
0.433680,0.500806,0.509800,0.722508,0.719840
0.431427,0.499305,0.506405,0.719224,0.718238
0.429174,0.497803,0.503010,0.715940,0.716635
0.426921,0.496302,0.499616,0.712656,0.715032
0.424668,0.494800,0.496221,0.709373,0.713429
0.422415,0.493298,0.492826,0.706089,0.711826
0.420162,0.491797,0.489432,0.702805,0.710223
0.417909,0.490295,0.486037,0.699521,0.708621
0.415656,0.488793,0.482643,0.696238,0.707018
0.413403,0.487292,0.479248,0.692954,0.705415
