density,loudness,brightness,roughness,speed
0.354901,0.469927,0.591075,0.056708,0.678256
0.357110,0.471377,0.591366,0.057331,0.679861
0.359565,0.472988,0.591689,0.058023,0.681644
0.362265,0.474760,0.592044,0.058785,0.683605
0.365210,0.476694,0.592431,0.059616,0.685745
0.368401,0.478789,0.592851,0.060517,0.688063
0.371838,0.481044,0.593303,0.061486,0.690560
0.375520,0.483461,0.593787,0.062525,0.693234
0.379447,0.486039,0.594303,0.063633,0.696088
0.383620,0.488779,0.594852,0.064810,0.699119
0.387793,0.491518,0.595401,0.065987,0.702150
0.391966,0.494257,0.595950,0.067165,0.705182
0.396139,0.496996,0.596498,0.068342,0.708213
0.400312,0.499735,0.597047,0.069519,0.711244
0.404485,0.502475,0.597596,0.070697,0.714276
0.408658,0.505214,0.598145,0.071874,0.717307
0.412830,0.507953,0.598693,0.073051,0.720338
0.417003,0.510692,0.599242,0.074228,0.723370
0.421176,0.513431,0.599791,0.075406,0.726401
0.425349,0.516170,0.600340,0.076583,0.729432
0.429522,0.518910,0.600888,0.077760,0.732464
0.433695,0.521649,0.601437,0.078938,0.735495
0.437868,0.524388,0.601986,0.080115,0.738526
0.442041,0.527127,0.602535,0.081292,0.741558
0.446214,0.529866,0.603083,0.082469,0.744589
0.450387,0.532606,0.603632,0.083647,0.747620
0.454559,0.535345,0.604181,0.084824,0.750652
0.458732,0.538084,0.604730,0.086001,0.753683
0.462905,0.540823,0.605278,0.087179,0.756714
0.467078,0.543562,0.605827,0.088356,0.759746
0.471251,0.546301,0.606376,0.089533,0.762777
0.475424,0.549041,0.606925,0.090710,0.765809
0.479597,0.551780,0.607473,0.091888,0.768840
0.483770,0.554519,0.608022,0.093065,0.771871
0.487943,0.557258,0.608571,0.094242,0.774903
0.492116,0.559997,0.609120,0.095419,0.777934
0.496288,0.562737,0.609669,0.096597,0.780965
0.500461,0.565476,0.610217,0.097774,0.783997
0.504634,0.568215,0.610766,0.098951,0.787028
0.508807,0.570954,0.611315,0.100129,0.790059
0.512980,0.573693,0.611864,0.101306,0.793091
0.517153,0.576432,0.612412,0.102483,0.796122
0.521326,0.579172,0.612961,0.103660,0.799153
0.525499,0.581911,0.613510,0.104838,0.802185
0.529672,0.584650,0.614059,0.106015,0.805216
0.533845,0.587389,0.614607,0.107192,0.808247
0.538017,0.590128,0.615156,0.108370,0.811279
0.542190,0.592868,0.615705,0.109547,0.814310
0.546363,0.595607,0.616254,0.110724,0.817341
0.550536,0.598346,0.616802,0.111901,0.820373
0.554709,0.601085,0.617351,0.113079,0.823404
0.558882,0.603824,0.617900,0.114256,0.826436
0.563055,0.606563,0.618449,0.115433,0.829467
0.567228,0.609303,0.618997,0.116611,0.832498
0.571401,0.612042,0.619546,0.117788,0.835530
0.575574,0.614781,0.620095,0.118965,0.838561
0.579746,0.617520,0.620644,0.120142,0.841592
0.583919,0.620259,0.621192,0.121320,0.844624
0.588092,0.622999,0.621741,0.122497,0.847655
0.592265,0.625738,0.622290,0.123674,0.850686
0.596438,0.628477,0.622839,0.124852,0.853718
0.600611,0.631216,0.623387,0.126029,0.856749
0.604784,0.633955,0.623936,0.127206,0.859780
0.608957,0.636694,0.624485,0.128383,0.862812
0.613130,0.639434,0.625034,0.129561,0.865843
0.617303,0.642173,0.625583,0.130738,0.868874
0.621475,0.644912,0.626131,0.131915,0.871906
0.625648,0.647651,0.626680,0.133092,0.874937
0.629821,0.650390,0.627229,0.134270,0.877968
0.633994,0.653130,0.627778,0.135447,0.881000
0.638167,0.655869,0.628326,0.136624,0.884031
0.642340,0.658608,0.628875,0.137802,0.887062
0.646442,0.661314,0.629401,0.138973,0.889954
0.650152,0.663837,0.629799,0.140111,0.892075
0.653471,0.666178,0.630071,0.141215,0.893425
0.656399,0.668336,0.630216,0.142286,0.894006
0.658935,0.670311,0.630234,0.143323,0.893815
0.661080,0.672104,0.630125,0.144328,0.892855
0.662834,0.673714,0.629889,0.145298,0.891124
0.664196,0.675141,0.629526,0.146235,0.888623
0.665167,0.676386,0.629036,0.147139,0.885351
0.665746,0.677448,0.628419,0.148010,0.881310
0.665934,0.678327,0.627676,0.148847,0.876497
0.665731,0.679024,0.626805,0.149650,0.870915
0.665137,0.679538,0.625807,0.150421,0.864562
0.664151,0.679870,0.624683,0.151157,0.857438
0.662774,0.680018,0.623431,0.151861,0.849545
0.661005,0.679984,0.622053,0.152531,0.840881
0.658845,0.679768,0.620547,0.153167,0.831447
0.656365,0.679402,0.618938,0.153776,0.821382
0.653885,0.679036,0.617329,0.154385,0.811317
0.651404,0.678670,0.615719,0.154994,0.801253
0.648924,0.678304,0.614110,0.155604,0.791188
0.646444,0.677938,0.612501,0.156213,0.781123
0.643964,0.677572,0.610892,0.156822,0.771059
0.641484,0.677206,0.609282,0.157431,0.760994
0.639004,0.676840,0.607673,0.158040,0.750929
0.636523,0.676474,0.606064,0.158649,0.740865
0.634043,0.676108,0.604454,0.159258,0.730800
0.631563,0.675741,0.602845,0.159868,0.720736
0.629083,0.675375,0.601236,0.160477,0.710671
0.626603,0.675009,0.599627,0.161086,0.700606
0.624123,0.674643,0.598017,0.161695,0.690542
0.621642,0.674277,0.596408,0.162304,0.680477
0.619162,0.673911,0.594799,0.162913,0.670412
0.616682,0.673545,0.593189,0.163522,0.660348
0.614202,0.673179,0.591580,0.164132,0.650283
0.611722,0.672813,0.589971,0.164741,0.640219
0.609242,0.672447,0.588362,0.165350,0.630154
0.606761,0.672081,0.586752,0.165959,0.620089
0.604281,0.671715,0.585143,0.166568,0.610025
0.601801,0.671349,0.583534,0.167177,0.599960
0.599321,0.670983,0.581924,0.167787,0.589895
0.596841,0.670617,0.580315,0.168396,0.579831
0.594361,0.670251,0.578706,0.169005,0.569766
0.591880,0.669885,0.577097,0.169614,0.559702
0.589400,0.669519,0.575487,0.170223,0.549637
0.586920,0.669153,0.573878,0.170832,0.539572
0.584440,0.668787,0.572269,0.171441,0.529508
0.581960,0.668421,0.570659,0.172051,0.519443
0.579480,0.668055,0.569050,0.172660,0.509378
0.576999,0.667689,0.567441,0.173269,0.499314
0.574519,0.667323,0.565832,0.173878,0.489249
0.572039,0.666957,0.564222,0.174487,0.479184
0.569559,0.666591,0.562613,0.175096,0.469120
0.567079,0.666225,0.561004,0.175705,0.459055
0.564599,0.665859,0.559395,0.176315,0.448991
0.562118,0.665493,0.557785,0.176924,0.438926
0.559638,0.665127,0.556176,0.177533,0.428861
0.557158,0.664761,0.554567,0.178142,0.418797
0.554678,0.664395,0.552957,0.178751,0.408732
0.552198,0.664029,0.551348,0.179360,0.398667
0.549718,0.663663,0.549739,0.179969,0.388603
0.547237,0.663297,0.548130,0.180579,0.378538
0.544757,0.662931,0.546520,0.181188,0.368474
0.542277,0.662565,0.544911,0.181797,0.358409
0.539797,0.662199,0.543302,0.182406,0.348344
0.537317,0.661833,0.541692,0.183015,0.338280
0.534837,0.661466,0.540083,0.183624,0.328215
0.532356,0.661100,0.538474,0.184233,0.318150
0.529876,0.660734,0.536865,0.184843,0.308086
0.527396,0.660368,0.535255,0.185452,0.298021
0.524916,0.660002,0.533646,0.186061,0.287957
0.522436,0.659636,0.532037,0.186670,0.277892
0.519955,0.659270,0.530427,0.187279,0.267827
0.517475,0.658904,0.528818,0.187888,0.257763
0.514995,0.658538,0.527209,0.188497,0.247698
0.512515,0.658172,0.525600,0.189107,0.237633
0.510035,0.657806,0.523990,0.189716,0.227569
0.507555,0.657440,0.522381,0.190325,0.217504
0.505074,0.657074,0.520772,0.190934,0.207440
0.502594,0.656708,0.519162,0.191543,0.197375
0.500253,0.656285,0.517537,0.192229,0.187620
0.498292,0.655704,0.515869,0.193124,0.178719
0.496712,0.654967,0.514156,0.194230,0.170669
0.495513,0.654072,0.512401,0.195545,0.163473
0.494694,0.653019,0.510601,0.197071,0.157129
0.494257,0.651810,0.508758,0.198806,0.151638
0.494200,0.650443,0.506872,0.200751,0.147000
0.494524,0.648918,0.504942,0.202907,0.143215
0.495229,0.647237,0.502968,0.205272,0.140282
0.496315,0.645398,0.500951,0.207848,0.138202
0.497781,0.643402,0.498890,0.210633,0.136975
0.499629,0.641249,0.496786,0.213628,0.136600
0.501857,0.638938,0.494638,0.216834,0.137078
0.504466,0.636470,0.492446,0.220249,0.138409
0.507456,0.633845,0.490211,0.223874,0.140593
0.510827,0.631062,0.487933,0.227710,0.143629
0.514578,0.628123,0.485611,0.231755,0.147518
0.518572,0.625083,0.483261,0.235934,0.151950
0.522566,0.622043,0.480911,0.240113,0.156382
0.526560,0.619003,0.478561,0.244291,0.160813
0.530554,0.615963,0.476211,0.248470,0.165245
0.534548,0.612923,0.473861,0.252649,0.169677
0.538541,0.609883,0.471511,0.256828,0.174109
0.542535,0.606843,0.469162,0.261007,0.178540
0.546529,0.603803,0.466812,0.265186,0.182972
0.550523,0.600764,0.464462,0.269365,0.187404
0.554517,0.597724,0.462112,0.273544,0.191835
0.558511,0.594684,0.459762,0.277723,0.196267
0.562505,0.591644,0.457412,0.281902,0.200699
0.566499,0.588604,0.455062,0.286080,0.205131
0.570493,0.585564,0.452713,0.290259,0.209562
0.574486,0.582524,0.450363,0.294438,0.213994
0.578480,0.579484,0.448013,0.298617,0.218426
0.582474,0.576445,0.445663,0.302796,0.222857
0.586468,0.573405,0.443313,0.306975,0.227289
0.590462,0.570365,0.440963,0.311154,0.231721
0.594456,0.567325,0.438613,0.315333,0.236153
0.598450,0.564285,0.436263,0.319512,0.240584
0.602444,0.561245,0.433914,0.323691,0.245016
0.606437,0.558205,0.431564,0.327869,0.249448
0.610431,0.555165,0.429214,0.332048,0.253879
0.614425,0.552125,0.426864,0.336227,0.258311
0.618419,0.549086,0.424514,0.340406,0.262743
0.622413,0.546046,0.422164,0.344585,0.267175
0.626407,0.543006,0.419814,0.348764,0.271606
0.630401,0.539966,0.417465,0.352943,0.276038
0.634395,0.536926,0.415115,0.357122,0.280470
0.638389,0.533886,0.412765,0.361301,0.284901
0.642382,0.530846,0.410415,0.365479,0.289333
0.646376,0.527806,0.408065,0.369658,0.293765
0.650370,0.524766,0.405715,0.373837,0.298197
0.654364,0.521727,0.403365,0.378016,0.302628
0.658358,0.518687,0.401015,0.382195,0.307060
0.662352,0.515647,0.398666,0.386374,0.311492
0.666346,0.512607,0.396316,0.390553,0.315923
0.670340,0.509567,0.393966,0.394732,0.320355
0.674334,0.506527,0.391616,0.398911,0.324787
0.678327,0.503487,0.389266,0.403090,0.329219
0.682321,0.500447,0.386916,0.407268,0.333650
0.686315,0.497408,0.384566,0.411447,0.338082
0.690309,0.494368,0.382217,0.415626,0.342514
0.694303,0.491328,0.379867,0.419805,0.346945
0.698297,0.488288,0.377517,0.423984,0.351377
0.702291,0.485248,0.375167,0.428163,0.355809
0.706285,0.482208,0.372817,0.432342,0.360241
0.710279,0.479168,0.370467,0.436521,0.364672
0.714272,0.476128,0.368117,0.440700,0.369104
0.718266,0.473088,0.365767,0.444879,0.373536
0.722260,0.470049,0.363418,0.449057,0.377967
0.726254,0.467009,0.361068,0.453236,0.382399
0.730248,0.463969,0.358718,0.457415,0.386831
0.734242,0.460929,0.356368,0.461594,0.391263
0.738236,0.457889,0.354018,0.465773,0.395694
0.742230,0.454849,0.351668,0.469952,0.400126
0.746224,0.451809,0.349318,0.474131,0.404558
0.750217,0.448769,0.346968,0.478310,0.408989
0.754211,0.445729,0.344619,0.482489,0.413421
0.758205,0.442690,0.342269,0.486667,0.417853
0.762199,0.439650,0.339919,0.490846,0.422285
0.766193,0.436610,0.337569,0.495025,0.426716
0.769953,0.433704,0.335412,0.499202,0.431066
0.773284,0.431042,0.333608,0.503375,0.435267
0.776186,0.428626,0.332158,0.507543,0.439318
0.778659,0.426455,0.331062,0.511708,0.443219
0.780702,0.424529,0.330319,0.515869,0.446970
0.782317,0.422847,0.329929,0.520025,0.450572
0.783503,0.421411,0.329893,0.524178,0.454024
0.784260,0.420220,0.330210,0.528326,0.457327
0.784588,0.419274,0.330881,0.532471,0.460480
0.784487,0.418572,0.331905,0.536611,0.463483
0.783957,0.418116,0.333283,0.540748,0.466337
0.782998,0.417905,0.335015,0.544880,0.469041
0.781610,0.417938,0.337099,0.549008,0.471596
0.779792,0.418217,0.339538,0.553133,0.474001
0.777546,0.418741,0.342329,0.557253,0.476256
0.774871,0.419510,0.345475,0.561369,0.478361
0.771767,0.420523,0.348973,0.565482,0.480317
0.768468,0.421648,0.352633,0.569592,0.482205
0.765169,0.422773,0.356292,0.573702,0.484093
0.761870,0.423899,0.359952,0.577813,0.485981
0.758571,0.425024,0.363611,0.581923,0.487869
0.755272,0.426149,0.367270,0.586034,0.489757
0.751972,0.427274,0.370930,0.590144,0.491645
0.748673,0.428399,0.374589,0.594255,0.493532
0.745374,0.429524,0.378249,0.598365,0.495420
0.742075,0.430649,0.381908,0.602476,0.497308
0.738776,0.431774,0.385568,0.606586,0.499196
0.735477,0.432899,0.389227,0.610697,0.501084
0.732178,0.434024,0.392886,0.614807,0.502972
0.728879,0.435149,0.396546,0.618917,0.504860
0.725580,0.436274,0.400205,0.623028,0.506748
0.722280,0.437400,0.403865,0.627138,0.508636
0.718981,0.438525,0.407524,0.631249,0.510523
0.715682,0.439650,0.411184,0.635359,0.512411
0.712383,0.440775,0.414843,0.639470,0.514299
0.709084,0.441900,0.418502,0.643580,0.516187
0.705785,0.443025,0.422162,0.647691,0.518075
0.702486,0.444150,0.425821,0.651801,0.519963
0.699187,0.445275,0.429481,0.655911,0.521851
0.695888,0.446400,0.433140,0.660022,0.523739
0.692588,0.447525,0.436800,0.664132,0.525627
0.689289,0.448650,0.440459,0.668243,0.527514
0.685990,0.449775,0.444118,0.672353,0.529402
0.682691,0.450900,0.447778,0.676464,0.531290
0.679392,0.452026,0.451437,0.680574,0.533178
0.676093,0.453151,0.455097,0.684685,0.535066
0.672794,0.454276,0.458756,0.688795,0.536954
0.669495,0.455401,0.462415,0.692905,0.538842
0.666196,0.456526,0.466075,0.697016,0.540730
0.662896,0.457651,0.469734,0.701126,0.542618
0.659597,0.458776,0.473394,0.705237,0.544505
0.656298,0.459901,0.477053,0.709347,0.546393
0.652999,0.461026,0.480713,0.713458,0.548281
0.649700,0.462151,0.484372,0.717568,0.550169
0.646401,0.463276,0.488031,0.721679,0.552057
0.643102,0.464401,0.491691,0.725789,0.553945
0.639803,0.465527,0.495350,0.729899,0.555833
0.636504,0.466652,0.499010,0.734010,0.557721
0.633204,0.467777,0.502669,0.738120,0.559608
0.629905,0.468902,0.506329,0.742231,0.561496
0.626606,0.470027,0.509988,0.746341,0.563384
0.623307,0.471152,0.513647,0.750452,0.565272
0.620008,0.472277,0.517307,0.754562,0.567160
0.616709,0.473402,0.520966,0.758673,0.569048
0.613410,0.474527,0.524626,0.762783,0.570936
0.610111,0.475652,0.528285,0.766894,0.572824
0.606812,0.476777,0.531944,0.771004,0.574712
0.603512,0.477902,0.535604,0.775114,0.576599
0.600213,0.479027,0.539263,0.779225,0.578487
0.596914,0.480153,0.542923,0.783335,0.580375
0.593615,0.481278,0.546582,0.787446,0.582263
0.590316,0.482403,0.550242,0.791556,0.584151
0.587017,0.483528,0.553901,0.795667,0.586039
0.583718,0.484653,0.557560,0.799777,0.587927
0.580419,0.485778,0.561220,0.803888,0.589815
0.577120,0.486903,0.564879,0.807998,0.591703
0.573820,0.488028,0.568539,0.812108,0.593590
0.570521,0.489153,0.572198,0.816219,0.595478
0.567222,0.490278,0.575858,0.820329,0.597366
0.563923,0.491403,0.579517,0.824440,0.599254
0.560687,0.492421,0.583120,0.828216,0.601045
0.557537,0.493291,0.586644,0.831532,0.602702
0.554474,0.494014,0.590091,0.834389,0.604225
0.551497,0.494590,0.593459,0.836787,0.605615
0.548607,0.495017,0.596749,0.838724,0.606871
0.545803,0.495298,0.599961,0.840202,0.607994
0.543086,0.495430,0.603095,0.841221,0.608983
0.540456,0.495416,0.606151,0.841780,0.609838
0.537911,0.495253,0.609129,0.841879,0.610560
0.535454,0.494944,0.612029,0.841518,0.611148
0.533083,0.494487,0.614850,0.840698,0.611602
0.530798,0.493882,0.617594,0.839419,0.611923
0.528600,0.493130,0.620259,0.837679,0.612110
0.526488,0.492230,0.622846,0.835480,0.612163
0.524463,0.491183,0.625356,0.832822,0.612083
0.522524,0.489988,0.627787,0.829704,0.611870
0.520672,0.488646,0.630140,0.826126,0.611522
0.518844,0.487263,0.632471,0.822423,0.611138
0.517015,0.485881,0.634803,0.818720,0.610754
0.515187,0.484498,0.637135,0.815016,0.610371
0.513358,0.483116,0.639466,0.811313,0.609987
0.511530,0.481733,0.641798,0.807610,0.609603
0.509701,0.480351,0.644130,0.803907,0.609219
0.507872,0.478968,0.646461,0.800204,0.608835
0.506044,0.477586,0.648793,0.796501,0.608451
0.504215,0.476203,0.651125,0.792797,0.608067
0.502387,0.474821,0.653456,0.789094,0.607684
0.500558,0.473438,0.655788,0.785391,0.607300
0.498730,0.472056,0.658120,0.781688,0.606916
0.496901,0.470673,0.660451,0.777985,0.606532
0.495073,0.469291,0.662783,0.774282,0.606148
0.493244,0.467908,0.665115,0.770578,0.605764
0.491416,0.466526,0.667446,0.766875,0.605380
0.489587,0.465143,0.669778,0.763172,0.604997
0.487759,0.463761,0.672110,0.759469,0.604613
0.485930,0.462379,0.674441,0.755766,0.604229
0.484101,0.460996,0.676773,0.752063,0.603845
0.482273,0.459614,0.679105,0.748359,0.603461
0.480444,0.458231,0.681437,0.744656,0.603077
0.478616,0.456849,0.683768,0.740953,0.602693
0.476787,0.455466,0.686100,0.737250,0.602310
0.474959,0.454084,0.688432,0.733547,0.601926
0.473130,0.452701,0.690763,0.729844,0.601542
0.471302,0.451319,0.693095,0.726141,0.601158
0.469473,0.449936,0.695427,0.722437,0.600774
0.467645,0.448554,0.697758,0.718734,0.600390
0.465816,0.447171,0.700090,0.715031,0.600007
0.463988,0.445789,0.702422,0.711328,0.599623
0.462159,0.444406,0.704753,0.707625,0.599239
0.460330,0.443024,0.707085,0.703922,0.598855
0.458502,0.441641,0.709417,0.700218,0.598471
0.456673,0.440259,0.711748,0.696515,0.598087
0.454845,0.438876,0.714080,0.692812,0.597703
0.453016,0.437494,0.716412,0.689109,0.597320
0.451188,0.436111,0.718743,0.685406,0.596936
0.449359,0.434729,0.721075,0.681703,0.596552
0.447531,0.433346,0.723407,0.677999,0.596168
0.445702,0.431964,0.725738,0.674296,0.595784
0.443874,0.430582,0.728070,0.670593,0.595400
0.442045,0.429199,0.730402,0.666890,0.595016
0.440217,0.427817,0.732733,0.663187,0.594633
0.438388,0.426434,0.735065,0.659484,0.594249
0.436559,0.425052,0.737397,0.655780,0.593865
0.434731,0.423669,0.739729,0.652077,0.593481
0.432902,0.422287,0.742060,0.648374,0.593097
0.431074,0.420904,0.744392,0.644671,0.592713
0.429245,0.419522,0.746724,0.640968,0.592329
0.427417,0.418139,0.749055,0.637265,0.591946
0.425588,0.416757,0.751387,0.633561,0.591562
0.423760,0.415374,0.753719,0.629858,0.591178
0.421931,0.413992,0.756050,0.626155,0.590794
0.420103,0.412609,0.758382,0.622452,0.590410
0.418274,0.411227,0.760714,0.618749,0.590026
0.416445,0.409844,0.763045,0.615046,0.589642
0.414617,0.408462,0.765377,0.611343,0.589259
0.412788,0.407079,0.767709,0.607639,0.588875
0.410960,0.405697,0.770040,0.603936,0.588491
0.409131,0.404314,0.772372,0.600233,0.588107
0.407303,0.402932,0.774704,0.596530,0.587723
0.405474,0.401550,0.777035,0.592827,0.587339
0.403891,0.400203,0.779141,0.589262,0.586857
0.402576,0.398896,0.780998,0.585850,0.586265
0.401531,0.397629,0.782607,0.582589,0.585564
0.400755,0.396402,0.783967,0.579482,0.584755
0.400249,0.395214,0.785079,0.576526,0.583836
0.400012,0.394066,0.785942,0.573723,0.582809
0.400044,0.392958,0.786557,0.571072,0.581673
0.400346,0.391889,0.786923,0.568573,0.580428
0.400916,0.390860,0.787041,0.566227,0.579074
0.401757,0.389870,0.786910,0.564033,0.577611
0.402866,0.388921,0.786531,0.561991,0.576040
0.404245,0.388011,0.785903,0.560102,0.574359
0.405893,0.387140,0.785026,0.558364,0.572570
0.407811,0.386310,0.783902,0.556780,0.570672
0.409997,0.385518,0.782528,0.555347,0.568664
0.412453,0.384767,0.780906,0.554067,0.566548
0.415179,0.384055,0.779036,0.552939,0.564323
0.417929,0.383347,0.777143,0.551825,0.562089
0.420679,0.382639,0.775250,0.550710,0.559854
0.423429,0.381931,0.773357,0.549596,0.557619
0.426178,0.381223,0.771464,0.548482,0.555384
0.428928,0.380515,0.769571,0.547368,0.553149
0.431678,0.379807,0.767678,0.546254,0.550914
0.434428,0.379099,0.765785,0.545140,0.548680
0.437178,0.378390,0.763892,0.544026,0.546445
0.439928,0.377682,0.761999,0.542911,0.544210
0.442678,0.376974,0.760106,0.541797,0.541975
0.445428,0.376266,0.758213,0.540683,0.539740
0.448178,0.375558,0.756320,0.539569,0.537505
0.450928,0.374850,0.754427,0.538455,0.535271
0.453678,0.374142,0.752534,0.537341,0.533036
0.456427,0.373434,0.750641,0.536227,0.530801
0.459177,0.372726,0.748748,0.535112,0.528566
0.461927,0.372017,0.746855,0.533998,0.526331
0.464677,0.371309,0.744962,0.532884,0.524097
0.467427,0.370601,0.743069,0.531770,0.521862
0.470177,0.369893,0.741176,0.530656,0.519627
0.472927,0.369185,0.739283,0.529542,0.517392
0.475677,0.368477,0.737390,0.528428,0.515157
0.478427,0.367769,0.735497,0.527313,0.512922
0.481177,0.367061,0.733604,0.526199,0.510688
