density,loudness,brightness,roughness,speed
0.348650,0.440298,0.647571,0.880363,0.378735
0.347707,0.439092,0.645442,0.880005,0.377592
0.346659,0.437752,0.643078,0.879607,0.376321
0.345507,0.436278,0.640477,0.879169,0.374923
0.344250,0.434670,0.637639,0.878692,0.373398
0.342889,0.432928,0.634565,0.878175,0.371746
0.341422,0.431051,0.631254,0.877618,0.369967
0.339851,0.429041,0.627707,0.877021,0.368061
0.338175,0.426897,0.623924,0.876385,0.366028
0.336394,0.424619,0.619904,0.875709,0.363868
0.334613,0.422341,0.615884,0.875032,0.361707
0.332833,0.420063,0.611864,0.874356,0.359547
0.331052,0.417784,0.607844,0.873680,0.357387
0.329271,0.415506,0.603824,0.873004,0.355226
0.327490,0.413228,0.599804,0.872327,0.353066
0.325710,0.410950,0.595785,0.871651,0.350906
0.323929,0.408672,0.591765,0.870975,0.348746
0.322148,0.406393,0.587745,0.870299,0.346585
0.320367,0.404115,0.583725,0.869622,0.344425
0.318587,0.401837,0.579705,0.868946,0.342265
0.316806,0.399559,0.575685,0.868270,0.340105
0.315025,0.397281,0.571665,0.867594,0.337944
0.313244,0.395003,0.567645,0.866917,0.335784
0.311464,0.392724,0.563625,0.866241,0.333624
0.309683,0.390446,0.559605,0.865565,0.331463
0.307902,0.388168,0.555585,0.864889,0.329303
0.306121,0.385890,0.551565,0.864212,0.327143
0.304341,0.383612,0.547546,0.863536,0.324983
0.302560,0.381333,0.543526,0.862860,0.322822
0.300779,0.379055,0.539506,0.862184,0.320662
0.298998,0.376777,0.535486,0.861507,0.318502
0.297218,0.374499,0.531466,0.860831,0.316342
0.295437,0.372221,0.527446,0.860155,0.314181
0.293656,0.369943,0.523426,0.859479,0.312021
0.291875,0.367664,0.519406,0.858802,0.309861
0.290095,0.365386,0.515386,0.858126,0.307700
0.288314,0.363108,0.511366,0.857450,0.305540
0.286533,0.360830,0.507346,0.856774,0.303380
0.284752,0.358552,0.503326,0.856097,0.301220
0.282972,0.356274,0.499306,0.855421,0.299059
0.281191,0.353995,0.495287,0.854745,0.296899
0.279410,0.351717,0.491267,0.854069,0.294739
0.277629,0.349439,0.487247,0.853392,0.292578
0.275849,0.347161,0.483227,0.852716,0.290418
0.274068,0.344883,0.479207,0.852040,0.288258
0.272287,0.342604,0.475187,0.851363,0.286098
0.270506,0.340326,0.471167,0.850687,0.283937
0.268726,0.338048,0.467147,0.850011,0.281777
0.266945,0.335770,0.463127,0.849335,0.279617
0.265164,0.333492,0.459107,0.848658,0.277457
0.263384,0.331214,0.455087,0.847982,0.275296
0.261603,0.328935,0.451067,0.847306,0.273136
0.259822,0.326657,0.447048,0.846630,0.270976
0.258041,0.324379,0.443028,0.845953,0.268815
0.256261,0.322101,0.439008,0.845277,0.266655
0.254480,0.319823,0.434988,0.844601,0.264495
0.252699,0.317544,0.430968,0.843925,0.262335
0.250918,0.315266,0.426948,0.843248,0.260174
0.249138,0.312988,0.422928,0.842572,0.258014
0.247357,0.310710,0.418908,0.841896,0.255854
0.245576,0.308432,0.414888,0.841220,0.253693
0.243795,0.306154,0.410868,0.840543,0.251533
0.242015,0.303875,0.406848,0.839867,0.249373
0.240234,0.301597,0.402828,0.839191,0.247213
0.238453,0.299319,0.398809,0.838515,0.245052
0.236672,0.297041,0.394789,0.837838,0.242892
0.234892,0.294763,0.390769,0.837162,0.240732
0.233111,0.292484,0.386749,0.836486,0.238572
0.231330,0.290206,0.382729,0.835810,0.236411
0.229549,0.287928,0.378709,0.835133,0.234251
0.227769,0.285650,0.374689,0.834457,0.232091
0.225988,0.283372,0.370669,0.833781,0.229930
0.224207,0.281094,0.366649,0.833105,0.227770
0.222426,0.278815,0.362629,0.832428,0.225610
0.221056,0.277000,0.358939,0.831598,0.223901
0.220156,0.275715,0.355625,0.830593,0.222707
0.219725,0.274958,0.352687,0.829412,0.222029
0.219764,0.274731,0.350126,0.828055,0.221867
0.220272,0.275034,0.347942,0.826522,0.222220
0.221250,0.275865,0.346134,0.824814,0.223089
0.222697,0.277226,0.344702,0.822930,0.224473
0.224613,0.279116,0.343647,0.820871,0.226373
0.226999,0.281536,0.342969,0.818636,0.228789
0.229855,0.284485,0.342667,0.816225,0.231720
0.233180,0.287963,0.342741,0.813638,0.235166
0.236975,0.291971,0.343192,0.810876,0.239129
0.241239,0.296508,0.344020,0.807939,0.243607
0.245973,0.301574,0.345224,0.804825,0.248600
0.251176,0.307170,0.346804,0.801536,0.254109
0.256849,0.313295,0.348761,0.798072,0.260134
0.262991,0.319949,0.351095,0.794431,0.266674
0.269192,0.326669,0.353475,0.790769,0.273278
0.275393,0.333390,0.355856,0.787107,0.279883
0.281594,0.340110,0.358236,0.783445,0.286488
0.287795,0.346830,0.360617,0.779783,0.293092
0.293996,0.353551,0.362997,0.776120,0.299697
0.300197,0.360271,0.365378,0.772458,0.306302
0.306398,0.366992,0.367758,0.768796,0.312906
0.312598,0.373712,0.370139,0.765134,0.319511
0.318799,0.380432,0.372519,0.761471,0.326115
0.325000,0.387153,0.374900,0.757809,0.332720
0.331201,0.393873,0.377280,0.754147,0.339325
0.337402,0.400593,0.379661,0.750485,0.345929
0.343603,0.407314,0.382041,0.746822,0.352534
0.349804,0.414034,0.384422,0.743160,0.359139
0.356005,0.420755,0.386803,0.739498,0.365743
0.362206,0.427475,0.389183,0.735836,0.372348
0.368407,0.434195,0.391564,0.732174,0.378953
0.374608,0.440916,0.393944,0.728511,0.385557
0.380809,0.447636,0.396325,0.724849,0.392162
0.387010,0.454357,0.398705,0.721187,0.398766
0.393210,0.461077,0.401086,0.717525,0.405371
0.399411,0.467797,0.403466,0.713862,0.411976
0.405612,0.474518,0.405847,0.710200,0.418580
0.411813,0.481238,0.408227,0.706538,0.425185
0.418014,0.487959,0.410608,0.702876,0.431790
0.424215,0.494679,0.412988,0.699213,0.438394
0.430416,0.501399,0.415369,0.695551,0.444999
0.436617,0.508120,0.417749,0.691889,0.451604
0.442818,0.514840,0.420130,0.688227,0.458208
0.449019,0.521561,0.422510,0.684565,0.464813
0.455220,0.528281,0.424891,0.680902,0.471417
0.461421,0.535001,0.427272,0.677240,0.478022
0.467622,0.541722,0.429652,0.673578,0.484627
0.473823,0.548442,0.432033,0.669916,0.491231
0.480023,0.555163,0.434413,0.666253,0.497836
0.486224,0.561883,0.436794,0.662591,0.504441
0.492425,0.568603,0.439174,0.658929,0.511045
0.498626,0.575324,0.441555,0.655267,0.517650
0.504827,0.582044,0.443935,0.651604,0.524254
0.511028,0.588765,0.446316,0.647942,0.530859
0.517229,0.595485,0.448696,0.644280,0.537464
0.523430,0.602205,0.451077,0.640618,0.544068
0.529631,0.608926,0.453457,0.636956,0.550673
0.535832,0.615646,0.455838,0.633293,0.557278
0.542033,0.622367,0.458218,0.629631,0.563882
0.548234,0.629087,0.460599,0.625969,0.570487
0.554435,0.635807,0.462979,0.622307,0.577092
0.560635,0.642528,0.465360,0.618644,0.583696
0.566836,0.649248,0.467741,0.614982,0.590301
0.573037,0.655969,0.470121,0.611320,0.596905
0.579238,0.662689,0.472502,0.607658,0.603510
0.585439,0.669409,0.474882,0.603995,0.610115
0.591640,0.676130,0.477263,0.600333,0.616719
0.597841,0.682850,0.479643,0.596671,0.623324
0.604042,0.689571,0.482024,0.593009,0.629929
0.610243,0.696291,0.484404,0.589346,0.636533
0.616444,0.703011,0.486785,0.585684,0.643138
0.622645,0.709732,0.489165,0.582022,0.649743
0.628846,0.716452,0.491546,0.578360,0.656347
0.635047,0.723173,0.493926,0.574698,0.662952
0.641248,0.729893,0.496307,0.571035,0.669556
0.647448,0.736613,0.498687,0.567373,0.676161
0.653649,0.743334,0.501068,0.563711,0.682766
0.659850,0.750054,0.503448,0.560049,0.689370
0.665705,0.756399,0.505574,0.556331,0.695546
0.671099,0.762244,0.507359,0.552540,0.701150
0.676031,0.767587,0.508804,0.548676,0.706182
0.680501,0.772431,0.509908,0.544738,0.710642
0.684510,0.776774,0.510673,0.540727,0.714531
0.688058,0.780616,0.511097,0.536642,0.717848
0.691145,0.783957,0.511180,0.532483,0.720592
0.693769,0.786799,0.510924,0.528251,0.722765
0.695933,0.789139,0.510327,0.523945,0.724366
0.697635,0.790979,0.509390,0.519566,0.725396
0.698876,0.792319,0.508113,0.515114,0.725853
0.699655,0.793158,0.506496,0.510588,0.725739
0.699973,0.793496,0.504538,0.505988,0.725053
0.699829,0.793334,0.502240,0.501315,0.723795
0.699224,0.792671,0.499602,0.496568,0.721965
0.698158,0.791508,0.496623,0.491748,0.719563
0.696630,0.789844,0.493304,0.486854,0.716590
0.694987,0.788055,0.489901,0.481942,0.713474
0.693344,0.786266,0.486497,0.477030,0.710357
0.691700,0.784477,0.483093,0.472118,0.707241
0.690057,0.782688,0.479689,0.467206,0.704124
0.688414,0.780899,0.476285,0.462294,0.701008
0.686771,0.779110,0.472882,0.457382,0.697892
0.685128,0.777322,0.469478,0.452470,0.694775
0.683484,0.775533,0.466074,0.447558,0.691659
0.681841,0.773744,0.462670,0.442645,0.688542
0.680198,0.771955,0.459266,0.437733,0.685426
0.678555,0.770166,0.455863,0.432821,0.682310
0.676912,0.768377,0.452459,0.427909,0.679193
0.675268,0.766588,0.449055,0.422997,0.676077
0.673625,0.764799,0.445651,0.418085,0.672960
0.671982,0.763010,0.442247,0.413173,0.669844
0.670339,0.761221,0.438844,0.408261,0.666728
0.668696,0.759432,0.435440,0.403349,0.663611
0.667052,0.757643,0.432036,0.398436,0.660495
0.665409,0.755854,0.428632,0.393524,0.657378
0.663766,0.754065,0.425228,0.388612,0.654262
0.662123,0.752276,0.421825,0.383700,0.651146
0.660480,0.750487,0.418421,0.378788,0.648029
0.658836,0.748698,0.415017,0.373876,0.644913
0.657193,0.746909,0.411613,0.368964,0.641796
0.655550,0.745121,0.408209,0.364052,0.638680
0.653907,0.743332,0.404805,0.359140,0.635564
0.652264,0.741543,0.401402,0.354228,0.632447
0.650620,0.739754,0.397998,0.349315,0.629331
0.648977,0.737965,0.394594,0.344403,0.626214
0.647334,0.736176,0.391190,0.339491,0.623098
0.645691,0.734387,0.387786,0.334579,0.619982
0.644048,0.732598,0.384383,0.329667,0.616865
0.642404,0.730809,0.380979,0.324755,0.613749
0.640761,0.729020,0.377575,0.319843,0.610632
0.639118,0.727231,0.374171,0.314931,0.607516
0.637475,0.725442,0.370767,0.310019,0.604400
0.635832,0.723653,0.367364,0.305107,0.601283
0.634188,0.721864,0.363960,0.300194,0.598167
0.632545,0.720075,0.360556,0.295282,0.595050
0.630902,0.718286,0.357152,0.290370,0.591934
0.629259,0.716497,0.353748,0.285458,0.588818
0.627616,0.714708,0.350345,0.280546,0.585701
0.625972,0.712920,0.346941,0.275634,0.582585
0.624329,0.711131,0.343537,0.270722,0.579468
0.622686,0.709342,0.340133,0.265810,0.576352
0.621043,0.707553,0.336729,0.260898,0.573236
0.619400,0.705764,0.333325,0.255986,0.570119
0.617756,0.703975,0.329922,0.251073,0.567003
0.616113,0.702186,0.326518,0.246161,0.563886
0.614470,0.700397,0.323114,0.241249,0.560770
0.612827,0.698608,0.319710,0.236337,0.557654
0.611184,0.696819,0.316306,0.231425,0.554537
0.609540,0.695030,0.312903,0.226513,0.551421
0.607897,0.693241,0.309499,0.221601,0.548304
0.606254,0.691452,0.306095,0.216689,0.545188
0.604611,0.689663,0.302691,0.211777,0.542072
0.602968,0.687874,0.299287,0.206865,0.538955
0.601324,0.686085,0.295884,0.201952,0.535839
0.599681,0.684296,0.292480,0.197040,0.532722
0.598038,0.682507,0.289076,0.192128,0.529606
0.596395,0.680718,0.285672,0.187216,0.526490
0.594752,0.678930,0.282268,0.182304,0.523373
0.593108,0.677141,0.278865,0.177392,0.520257
0.591465,0.675352,0.275461,0.172480,0.517140
0.589936,0.673547,0.272461,0.167957,0.514156
0.588588,0.671719,0.270107,0.164056,0.511382
0.587421,0.669865,0.268400,0.160777,0.508820
0.586436,0.667987,0.267338,0.158121,0.506468
0.585633,0.666085,0.266924,0.156087,0.504328
0.585012,0.664158,0.267155,0.154675,0.502398
0.584572,0.662206,0.268032,0.153886,0.500680
0.584314,0.660230,0.269556,0.153719,0.499172
0.584237,0.658230,0.271726,0.154174,0.497876
0.584342,0.656205,0.274542,0.155252,0.496791
0.584629,0.654155,0.278005,0.156952,0.495916
0.585097,0.652081,0.282113,0.159274,0.495253
0.585747,0.649982,0.286868,0.162219,0.494800
0.586579,0.647859,0.292269,0.165785,0.494559
0.587592,0.645711,0.298317,0.169975,0.494528
0.588787,0.643539,0.305010,0.174786,0.494709
0.590163,0.641342,0.312350,0.180220,0.495101
0.591608,0.639136,0.319932,0.185887,0.495571
0.593053,0.636930,0.327515,0.191554,0.496042
0.594497,0.634724,0.335097,0.197221,0.496513
0.595942,0.632518,0.342679,0.202888,0.496984
0.597387,0.630312,0.350261,0.208555,0.497454
0.598831,0.628106,0.357843,0.214222,0.497925
0.600276,0.625900,0.365426,0.219889,0.498396
0.601721,0.623694,0.373008,0.225557,0.498867
0.603165,0.621488,0.380590,0.231224,0.499337
0.604610,0.619282,0.388172,0.236891,0.499808
0.606054,0.617076,0.395754,0.242558,0.500279
0.607499,0.614869,0.403337,0.248225,0.500749
0.608944,0.612663,0.410919,0.253892,0.501220
0.610388,0.610457,0.418501,0.259559,0.501691
0.611833,0.608251,0.426083,0.265226,0.502162
0.613278,0.606045,0.433665,0.270893,0.502632
0.614722,0.603839,0.441247,0.276560,0.503103
0.616167,0.601633,0.448830,0.282228,0.503574
0.617612,0.599427,0.456412,0.287895,0.504045
0.619056,0.597221,0.463994,0.293562,0.504515
0.620501,0.595015,0.471576,0.299229,0.504986
0.621946,0.592809,0.479158,0.304896,0.505457
0.623390,0.590603,0.486741,0.310563,0.505928
0.624835,0.588397,0.494323,0.316230,0.506398
0.626279,0.586191,0.501905,0.321897,0.506869
0.627724,0.583985,0.509487,0.327564,0.507340
0.629169,0.581779,0.517069,0.333232,0.507811
0.630613,0.579573,0.524652,0.338899,0.508281
0.632058,0.577367,0.532234,0.344566,0.508752
0.633503,0.575161,0.539816,0.350233,0.509223
0.634947,0.572955,0.547398,0.355900,0.509693
0.636392,0.570748,0.554980,0.361567,0.510164
0.637837,0.568542,0.562563,0.367234,0.510635
0.639281,0.566336,0.570145,0.372901,0.511106
0.640726,0.564130,0.577727,0.378568,0.511576
0.642171,0.561924,0.585309,0.384235,0.512047
0.643615,0.559718,0.592891,0.389903,0.512518
0.645060,0.557512,0.600474,0.395570,0.512989
0.646504,0.555306,0.608056,0.401237,0.513459
0.647949,0.553100,0.615638,0.406904,0.513930
0.649394,0.550894,0.623220,0.412571,0.514401
0.650838,0.548688,0.630802,0.418238,0.514872
0.652283,0.546482,0.638384,0.423905,0.515342
0.653728,0.544276,0.645967,0.429572,0.515813
0.655172,0.542070,0.653549,0.435239,0.516284
0.656617,0.539864,0.661131,0.440907,0.516755
0.658062,0.537658,0.668713,0.446574,0.517225
0.659506,0.535452,0.676295,0.452241,0.517696
0.660951,0.533246,0.683878,0.457908,0.518167
0.662395,0.531040,0.691460,0.463575,0.518638
0.663840,0.528834,0.699042,0.469242,0.519108
0.665285,0.526627,0.706624,0.474909,0.519579
0.666729,0.524421,0.714206,0.480576,0.520050
0.668174,0.522215,0.721789,0.486243,0.520520
0.669619,0.520009,0.729371,0.491910,0.520991
0.671063,0.517803,0.736953,0.497578,0.521462
0.672508,0.515597,0.744535,0.503245,0.521933
0.673953,0.513391,0.752117,0.508912,0.522403
0.675397,0.511185,0.759700,0.514579,0.522874
0.676842,0.508979,0.767282,0.520246,0.523345
0.678287,0.506773,0.774864,0.525913,0.523816
0.679731,0.504567,0.782446,0.531580,0.524286
0.681176,0.502361,0.790028,0.537247,0.524757
0.682620,0.500155,0.797610,0.542914,0.525228
0.684086,0.498148,0.804935,0.548269,0.525837
0.685593,0.496538,0.811746,0.552999,0.526721
0.687142,0.495326,0.818042,0.557104,0.527882
0.688733,0.494512,0.823824,0.560585,0.529318
0.690365,0.494095,0.829091,0.563441,0.531031
0.692040,0.494076,0.833844,0.565672,0.533019
0.693756,0.494455,0.838082,0.567279,0.535283
0.695513,0.495231,0.841806,0.568260,0.537824
0.697313,0.496405,0.845015,0.568618,0.540640
0.699154,0.497977,0.847710,0.568350,0.543732
0.701037,0.499946,0.849891,0.567457,0.547100
0.702962,0.502313,0.851557,0.565940,0.550744
0.704928,0.505077,0.852708,0.563799,0.554664
0.706936,0.508240,0.853345,0.561032,0.558860
0.708986,0.511799,0.853468,0.557641,0.563332
0.711078,0.515757,0.853076,0.553625,0.568079
0.713211,0.520112,0.852170,0.548984,0.573103
0.715366,0.524666,0.851007,0.544031,0.578265
0.717520,0.529220,0.849843,0.539078,0.583426
0.719674,0.533774,0.848680,0.534125,0.588588
0.721828,0.538328,0.847516,0.529172,0.593750
0.723983,0.542882,0.846353,0.524219,0.598911
0.726137,0.547436,0.845190,0.519267,0.604073
0.728291,0.551990,0.844026,0.514314,0.609234
0.730445,0.556543,0.842863,0.509361,0.614396
0.732600,0.561097,0.841699,0.504408,0.619558
0.734754,0.565651,0.840536,0.499455,0.624719
0.736908,0.570205,0.839372,0.494502,0.629881
0.739063,0.574759,0.838209,0.489549,0.635043
0.741217,0.579313,0.837046,0.484596,0.640204
0.743371,0.583867,0.835882,0.479643,0.645366
0.745525,0.588421,0.834719,0.474690,0.650527
0.747680,0.592975,0.833555,0.469737,0.655689
0.749834,0.597529,0.832392,0.464784,0.660851
0.751988,0.602083,0.831229,0.459831,0.666012
0.754142,0.606637,0.830065,0.454878,0.671174
0.756297,0.611191,0.828902,0.449925,0.676336
0.758451,0.615745,0.827738,0.444972,0.681497
0.760605,0.620299,0.826575,0.440019,0.686659
0.762760,0.624853,0.825411,0.435066,0.691821
0.764914,0.629406,0.824248,0.430113,0.696982
0.767068,0.633960,0.823085,0.425160,0.702144
0.769222,0.638514,0.821921,0.420207,0.707305
0.771377,0.643068,0.820758,0.415254,0.712467
0.773531,0.647622,0.819594,0.410301,0.717629
0.775685,0.652176,0.818431,0.405348,0.722790
0.777840,0.656730,0.817268,0.400395,0.727952
0.779994,0.661284,0.816104,0.395442,0.733114
0.782148,0.665838,0.814941,0.390489,0.738275
0.784302,0.670392,0.813777,0.385536,0.743437
0.786457,0.674946,0.812614,0.380583,0.748599
0.788611,0.679500,0.811450,0.375630,0.753760
0.790765,0.684054,0.810287,0.370677,0.758922
0.792919,0.688608,0.809124,0.365724,0.764083
0.795074,0.693162,0.807960,0.360771,0.769245
0.797228,0.697716,0.806797,0.355818,0.774407
0.799382,0.702270,0.805633,0.350865,0.779568
0.801537,0.706823,0.804470,0.345912,0.784730
0.803691,0.711377,0.803307,0.340959,0.789892
0.805845,0.715931,0.802143,0.336006,0.795053
0.807999,0.720485,0.800980,0.331053,0.800215
0.810154,0.725039,0.799816,0.326100,0.805376
0.812308,0.729593,0.798653,0.321147,0.810538
0.814462,0.734147,0.797489,0.316194,0.815700
0.816616,0.738701,0.796326,0.311241,0.820861
0.818771,0.743255,0.795163,0.306288,0.826023
0.820925,0.747809,0.793999,0.301335,0.831185
0.823079,0.752363,0.792836,0.296382,0.836346
0.825234,0.756917,0.791672,0.291429,0.841508
0.827388,0.761471,0.790509,0.286476,0.846670
0.829542,0.766025,0.789346,0.281523,0.851831
0.831696,0.770579,0.788182,0.276570,0.856993
0.833851,0.775133,0.787019,0.271617,0.862154
0.836005,0.779686,0.785855,0.266664,0.867316
0.838159,0.784240,0.784692,0.261711,0.872478
0.840314,0.788794,0.783528,0.256758,0.877639
0.842468,0.793348,0.782365,0.251806,0.882801
0.844622,0.797902,0.781202,0.246853,0.887963
0.846776,0.802456,0.780038,0.241900,0.893124
0.848931,0.807010,0.778875,0.236947,0.898286
0.851085,0.811564,0.777711,0.231994,0.903447
0.853075,0.815973,0.776494,0.227230,0.908299
0.854629,0.819997,0.775131,0.222970,0.912322
0.855746,0.823635,0.773624,0.219214,0.915518
0.856426,0.826887,0.771973,0.215962,0.917885
0.856669,0.829754,0.770176,0.213215,0.919425
0.856476,0.832235,0.768235,0.210972,0.920138
0.855845,0.834330,0.766150,0.209232,0.920022
0.854778,0.836040,0.763919,0.207997,0.919078
0.853274,0.837364,0.761544,0.207266,0.917307
0.851333,0.838302,0.759024,0.207039,0.914708
0.848956,0.838855,0.756360,0.207316,0.911281
0.846141,0.839022,0.753551,0.208097,0.907026
0.842890,0.838803,0.750597,0.209383,0.901944
0.839202,0.838199,0.747499,0.211172,0.896033
0.835077,0.837209,0.744256,0.213466,0.889295
0.830515,0.835833,0.740868,0.216263,0.881729
0.825517,0.834072,0.737335,0.219565,0.873335
0.820245,0.832069,0.733713,0.223182,0.864424
0.814974,0.830067,0.730090,0.226799,0.855513
0.809702,0.828065,0.726467,0.230416,0.846602
0.804431,0.826062,0.722844,0.234033,0.837691
0.799159,0.824060,0.719221,0.237650,0.828779
0.793888,0.822058,0.715598,0.241266,0.819868
0.788617,0.820055,0.711975,0.244883,0.810957
0.783345,0.818053,0.708352,0.248500,0.802046
0.778074,0.816050,0.704730,0.252117,0.793135
0.772802,0.814048,0.701107,0.255734,0.784223
0.767531,0.812046,0.697484,0.259351,0.775312
0.762259,0.810043,0.693861,0.262967,0.766401
0.756988,0.808041,0.690238,0.266584,0.757490
0.751716,0.806039,0.686615,0.270201,0.748579
0.746445,0.804036,0.682992,0.273818,0.739667
0.741173,0.802034,0.679370,0.277435,0.730756
0.735902,0.800031,0.675747,0.281052,0.721845
0.730630,0.798029,0.672124,0.284669,0.712934
